SpectraSuite Data File
++++++++++++++++++++++++++++++++++++
Date: Thu Mar 23 14:08:37 EDT 2017
User: Administrator
Dark Spectrum Present: Yes
Reference Spectrum Present: No
Number of Sampled Component Spectra: 1
Spectrometers: SB2+H01071
Integration Time (usec): 5000000 (SB2+H01071)
Spectra Averaged: 1 (SB2+H01071)
Boxcar Smoothing: 3 (SB2+H01071)
Correct for Electrical Dark: No (SB2+H01071)
Strobe/Lamp Enabled: No (SB2+H01071)
Correct for Detector Non-linearity: No (SB2+H01071)
Correct for Stray Light: No (SB2+H01071)
Number of Pixels in Processed Spectrum: 2048
>>>>>Begin Processed Spectral Data<<<<<
191.06	20.34
191.43	20.34
191.81	20.34
192.19	16.79
192.56	9.68
192.94	0.65
193.31	5.17
193.69	0.65
194.07	2.58
194.44	14.20
194.82	5.81
195.19	-6.78
195.57	2.26
195.95	3.87
196.32	-4.20
196.70	-3.23
197.07	-8.39
197.45	-16.79
197.83	4.20
198.20	3.55
198.58	2.26
198.95	19.69
199.33	28.09
199.70	19.69
200.08	32.61
200.46	30.99
200.83	33.57
201.21	33.25
201.58	11.62
201.96	-0.97
202.33	-1.61
202.71	-3.87
203.09	-9.36
203.46	-2.26
203.84	-27.76
204.21	-24.86
204.59	-37.77
204.96	-27.76
205.34	-18.72
205.71	-10.33
206.09	-26.15
206.46	-12.59
206.84	-4.20
207.21	2.58
207.59	0.97
207.96	-8.07
208.34	-5.49
208.71	-0.97
209.09	11.30
209.46	1.94
209.84	-4.20
210.21	4.84
210.59	7.10
210.96	-1.94
211.34	-14.53
211.71	-17.76
212.09	-4.52
212.46	9.04
212.84	-6.46
213.21	-20.02
213.59	-18.40
213.96	-4.84
214.34	-14.85
214.71	-30.99
215.08	-24.21
215.46	-28.41
215.83	-17.76
216.21	-4.52
216.58	-6.78
216.96	-5.49
217.33	6.46
217.70	-2.91
218.08	8.39
218.45	-0.65
218.83	-6.46
219.20	-4.20
219.58	5.17
219.95	9.04
220.32	13.24
220.70	24.21
221.07	51.65
221.45	31.64
221.82	24.54
222.19	16.79
222.57	11.30
222.94	3.55
223.32	-8.39
223.69	-27.12
224.06	-17.11
224.44	10.33
224.81	18.40
225.18	34.54
225.56	41.97
225.93	45.20
226.31	41.00
226.68	40.35
227.05	14.85
227.43	-4.20
227.80	-10.01
228.17	-20.66
228.55	-21.95
228.92	-7.43
229.29	-7.75
229.67	0.00
230.04	21.31
230.41	7.10
230.79	17.11
231.16	35.51
231.53	24.54
231.91	31.96
232.28	19.37
232.65	-3.55
233.03	7.75
233.40	-13.24
233.77	-22.60
234.15	-14.20
234.52	-22.92
234.89	-26.80
235.26	-7.43
235.64	-14.20
236.01	17.11
236.38	23.89
236.76	18.72
237.13	32.28
237.50	49.07
237.87	44.55
238.25	37.13
238.62	21.31
238.99	9.36
239.36	15.82
239.74	-0.97
240.11	-7.10
240.48	-7.43
240.85	-3.23
241.23	-7.75
241.60	-17.76
241.97	-18.40
242.34	-10.33
242.72	-1.61
243.09	-3.23
243.46	11.94
243.83	-1.29
244.20	16.46
244.58	10.33
244.95	16.79
245.32	3.23
245.69	-9.04
246.07	-31.31
246.44	2.91
246.81	-13.24
247.18	-9.36
247.55	-23.89
247.92	-8.72
248.30	18.40
248.67	30.35
249.04	10.01
249.41	7.43
249.78	-4.52
250.16	5.17
250.53	7.10
250.90	4.84
251.27	-12.59
251.64	-3.55
252.01	-13.56
252.39	-0.00
252.76	10.33
253.13	-9.04
253.50	-32.93
253.87	-18.40
254.24	-29.70
254.61	-21.31
254.98	-4.52
255.36	-13.24
255.73	13.56
256.10	35.19
256.47	47.46
256.84	60.05
257.21	70.38
257.58	43.26
257.95	40.68
258.33	11.94
258.70	17.76
259.07	9.04
259.44	3.55
259.81	9.36
260.18	13.24
260.55	16.14
260.92	20.98
261.29	-1.61
261.66	-21.31
262.03	-14.85
262.40	-41.65
262.77	-34.54
263.15	-36.48
263.52	-22.28
263.89	9.36
264.26	35.83
264.63	40.35
265.00	64.24
265.37	72.31
265.74	64.89
266.11	60.37
266.48	33.25
266.85	10.33
267.22	13.24
267.59	4.84
267.96	3.23
268.33	12.59
268.70	9.68
269.07	15.50
269.44	22.92
269.81	18.40
270.18	15.17
270.55	14.53
270.92	9.68
271.29	5.17
271.66	-3.87
272.03	0.32
272.40	-3.87
272.77	0.00
273.14	-34.22
273.51	-42.29
273.88	-46.81
274.25	-42.29
274.62	-48.10
274.99	-54.88
275.36	-61.34
275.73	-40.03
276.10	-34.54
276.47	-14.20
276.84	-26.47
277.21	-22.60
277.58	-34.22
277.94	-38.74
278.31	-49.39
278.68	-45.52
279.05	-61.02
279.42	-26.47
279.79	-23.89
280.16	-15.50
280.53	12.91
280.90	17.43
281.27	28.73
281.64	30.67
282.01	11.62
282.37	13.88
282.74	15.82
283.11	1.29
283.48	9.68
283.85	-8.72
284.22	2.91
284.59	4.84
284.96	20.98
285.33	13.24
285.69	5.17
286.06	-4.20
286.43	-0.97
286.80	-20.02
287.17	-30.35
287.54	-48.10
287.91	-38.74
288.27	-27.44
288.64	-26.15
289.01	-14.85
289.38	-4.52
289.75	2.58
290.12	4.20
290.48	10.01
290.85	15.82
291.22	13.56
291.59	0.32
291.96	-8.07
292.33	-17.43
292.69	-24.21
293.06	-36.16
293.43	-25.18
293.80	-5.17
294.17	7.43
294.53	6.46
294.90	13.24
295.27	6.78
295.64	3.55
296.01	-16.14
296.37	-27.12
296.74	-18.08
297.11	15.82
297.48	32.28
297.84	43.58
298.21	37.13
298.58	38.42
298.95	37.13
299.31	29.05
299.68	7.10
300.05	0.00
300.42	-7.43
300.78	8.07
301.15	-3.55
301.52	-10.65
301.89	-14.20
302.25	4.20
302.62	-10.65
302.99	3.55
303.35	17.76
303.72	33.57
304.09	44.55
304.46	51.65
304.82	25.83
305.19	39.71
305.56	47.78
305.92	21.95
306.29	5.49
306.66	5.17
307.02	-11.62
307.39	0.97
307.76	0.00
308.12	-7.10
308.49	11.94
308.86	13.24
309.23	13.88
309.59	16.79
309.96	6.13
310.32	19.37
310.69	16.46
311.06	10.33
311.42	14.85
311.79	2.58
312.16	13.56
312.52	7.10
312.89	-7.10
313.26	-25.83
313.62	-14.20
313.99	-15.82
314.35	3.87
314.72	-12.27
315.09	8.07
315.45	18.72
315.82	33.57
316.19	22.60
316.55	35.83
316.92	28.41
317.28	26.47
317.65	31.31
318.02	-3.55
318.38	2.58
318.75	-6.13
319.11	-12.91
319.48	-21.63
319.84	-12.27
320.21	-16.14
320.58	1.94
320.94	-12.59
321.31	-16.14
321.67	-15.82
322.04	-9.36
322.40	-10.65
322.77	-27.12
323.13	-30.02
323.50	-30.35
323.86	-29.70
324.23	-27.44
324.60	-33.57
324.96	-35.51
325.33	-41.97
325.69	-33.57
326.06	-21.95
326.42	-4.20
326.79	-10.01
327.15	9.04
327.52	15.17
327.88	32.61
328.25	37.13
328.61	28.73
328.98	14.20
329.34	0.00
329.71	-20.66
330.07	-31.64
330.44	-40.03
330.80	-46.49
331.16	-25.18
331.53	-14.53
331.89	-15.50
332.26	-11.30
332.62	6.78
332.99	-9.36
333.35	-20.98
333.72	-37.45
334.08	-39.06
334.45	-16.79
334.81	-16.14
335.17	-38.42
335.54	-21.31
335.90	-3.55
336.27	-7.75
336.63	-11.30
337.00	-7.43
337.36	-20.02
337.72	1.61
338.09	8.39
338.45	11.30
338.82	20.02
339.18	29.38
339.54	29.38
339.91	40.35
340.27	21.31
340.63	7.10
341.00	11.94
341.36	8.39
341.73	4.52
342.09	-3.23
342.45	-5.49
342.82	-3.55
343.18	10.33
343.54	-7.43
343.91	-4.84
344.27	16.14
344.63	33.25
345.00	51.65
345.36	55.53
345.72	36.48
346.09	29.70
346.45	29.70
346.81	1.61
347.18	-7.43
347.54	1.61
347.90	0.65
348.27	-6.13
348.63	10.65
348.99	32.93
349.36	55.20
349.72	47.13
350.08	33.90
350.45	39.71
350.81	56.50
351.17	35.51
351.53	9.36
351.90	-15.50
352.26	-8.72
352.62	-32.28
352.98	-27.44
353.35	-31.96
353.71	-27.44
354.07	-23.24
354.44	-11.94
354.80	-14.85
355.16	3.55
355.52	-13.56
355.88	-10.65
356.25	6.46
356.61	8.72
356.97	-1.94
357.33	13.24
357.70	20.34
358.06	32.93
358.42	25.83
358.78	16.14
359.15	13.88
359.51	18.08
359.87	4.52
360.23	-3.23
360.59	-5.49
360.95	20.02
361.32	6.13
361.68	3.23
362.04	-3.87
362.40	-9.68
362.76	-17.11
363.13	-11.30
363.49	-34.54
363.85	-24.86
364.21	-30.02
364.57	-24.54
364.93	-20.98
365.30	-10.98
365.66	-11.62
366.02	-16.79
366.38	-0.32
366.74	-1.29
367.10	6.13
367.46	8.39
367.83	3.23
368.19	-3.55
368.55	19.37
368.91	6.46
369.27	12.27
369.63	-1.29
369.99	1.29
370.35	1.29
370.71	3.87
371.08	-19.37
371.44	-29.38
371.80	-15.17
372.16	1.94
372.52	-1.94
372.88	-22.60
373.24	-33.25
373.60	-24.21
373.96	-18.40
374.32	-17.43
374.68	-27.12
375.04	-28.09
375.40	-14.53
375.76	-10.01
376.13	-2.91
376.49	14.53
376.85	-2.91
377.21	-1.29
377.57	-4.52
377.93	3.87
378.29	-2.26
378.65	-11.62
379.01	-36.48
379.37	-30.67
379.73	-30.99
380.09	-19.37
380.45	-35.19
380.81	-20.66
381.17	-25.83
381.53	-26.80
381.89	-42.61
382.25	-41.32
382.61	-42.94
382.97	-26.47
383.33	-19.37
383.69	-10.01
384.05	1.61
384.41	9.04
384.77	8.07
385.13	4.52
385.49	-0.65
385.85	-7.43
386.20	-2.26
386.56	7.43
386.92	5.17
387.28	9.68
387.64	2.58
388.00	-7.43
388.36	9.68
388.72	13.56
389.08	8.07
389.44	13.56
389.80	-1.29
390.16	-1.29
390.52	14.20
390.88	7.75
391.23	4.52
391.59	9.04
391.95	1.61
392.31	18.72
392.67	9.68
393.03	4.20
393.39	-20.34
393.75	-22.60
394.11	-27.44
394.46	-10.65
394.82	-17.43
395.18	6.46
395.54	18.40
395.90	28.09
396.26	23.57
396.62	27.12
396.97	18.72
397.33	21.63
397.69	9.04
398.05	-8.39
398.41	-21.95
398.77	-22.92
399.12	-21.63
399.48	-17.76
399.84	-19.37
400.20	-16.79
400.56	-14.53
400.91	3.23
401.27	-3.55
401.63	-6.13
401.99	-11.30
402.35	-7.10
402.70	5.17
403.06	14.85
403.42	0.32
403.78	4.52
404.14	-7.43
404.49	-5.17
404.85	-6.46
405.21	-22.92
405.57	-18.08
405.92	-13.88
406.28	-8.72
406.64	-5.81
407.00	-1.29
407.35	-19.05
407.71	-22.60
408.07	-14.20
408.43	10.98
408.78	24.54
409.14	31.64
409.50	26.15
409.85	34.87
410.21	41.65
410.57	24.86
410.93	6.78
411.28	-7.75
411.64	-10.01
412.00	-1.29
412.35	4.52
412.71	-0.97
413.07	2.91
413.42	-7.43
413.78	-4.84
414.14	0.97
414.49	-1.94
414.85	0.65
415.21	2.91
415.56	2.58
415.92	16.14
416.28	10.33
416.63	14.85
416.99	19.69
417.35	28.09
417.70	17.11
418.06	20.02
418.42	3.55
418.77	16.14
419.13	6.78
419.48	-22.60
419.84	-37.13
420.20	-30.35
420.55	-30.35
420.91	-9.04
421.27	-17.43
421.62	-9.68
421.98	10.65
422.33	7.75
422.69	9.68
423.05	6.13
423.40	7.43
423.76	8.39
424.11	-6.46
424.47	-15.82
424.82	-16.79
425.18	-14.85
425.54	-17.43
425.89	-20.98
426.25	-29.38
426.60	-10.33
426.96	-1.94
427.31	-9.36
427.67	-3.87
428.02	-11.94
428.38	-17.43
428.73	1.61
429.09	-3.87
429.44	-5.81
429.80	0.97
430.15	-0.97
430.51	11.30
430.86	1.94
431.22	-6.46
431.57	-20.98
431.93	-5.49
432.28	0.97
432.64	6.46
432.99	15.17
433.35	29.05
433.70	26.47
434.06	27.44
434.41	5.49
434.77	32.61
435.12	23.24
435.48	1.94
435.83	-9.04
436.19	-4.52
436.54	10.98
436.89	26.47
437.25	-11.30
437.60	-9.36
437.96	5.81
438.31	21.95
438.67	8.72
439.02	10.01
439.37	-2.26
439.73	13.56
440.08	-2.58
440.44	-12.91
440.79	-12.59
441.15	2.91
441.50	-16.46
441.85	-18.40
442.21	-16.14
442.56	-4.84
442.91	-0.00
443.27	0.00
443.62	-9.36
443.98	12.91
444.33	5.49
444.68	5.81
445.04	4.20
445.39	0.65
445.74	-10.98
446.10	-7.43
446.45	-29.38
446.80	-26.47
447.16	-33.90
447.51	-27.44
447.86	-19.69
448.22	-25.18
448.57	-20.66
448.92	-21.63
449.28	-14.85
449.63	-27.12
449.98	-31.64
450.34	-20.98
450.69	-23.24
451.04	-9.36
451.40	9.04
451.75	10.65
452.10	19.69
452.45	22.92
452.81	-11.30
453.16	12.91
453.51	-15.82
453.86	-17.43
454.22	-22.28
454.57	-20.02
454.92	-22.92
455.27	-17.43
455.63	-32.93
455.98	-24.54
456.33	-35.19
456.68	-33.57
457.04	-26.80
457.39	-24.21
457.74	-3.55
458.09	-6.13
458.45	-14.20
458.80	-6.78
459.15	0.00
459.50	3.55
459.85	4.84
460.21	2.26
460.56	3.23
460.91	-3.55
461.26	4.52
461.61	1.94
461.97	2.26
462.32	2.91
462.67	-10.33
463.02	-4.20
463.37	8.07
463.72	8.39
464.08	12.59
464.43	13.88
464.78	24.21
465.13	38.74
465.48	15.82
465.83	30.99
466.18	27.12
466.54	29.05
466.89	12.91
467.24	4.84
467.59	7.75
467.94	21.63
468.29	11.30
468.64	9.36
468.99	-3.87
469.34	-6.46
469.70	-9.36
470.05	-27.12
470.40	-16.46
470.75	-11.30
471.10	-24.21
471.45	-11.94
471.80	10.01
472.15	14.53
472.50	15.17
472.85	2.91
473.20	9.04
473.55	32.28
473.90	22.92
474.25	7.75
474.61	-8.07
474.96	-4.84
475.31	8.39
475.66	-1.61
476.01	-22.28
476.36	-20.02
476.71	-19.05
477.06	-10.33
477.41	9.04
477.76	7.43
478.11	24.86
478.46	19.69
478.81	18.40
479.16	19.69
479.51	9.68
479.86	5.49
480.21	-4.52
480.56	-31.64
480.91	-11.94
481.26	1.29
481.61	0.32
481.96	13.56
482.31	11.30
482.66	21.95
483.00	25.50
483.35	23.24
483.70	19.37
484.05	43.26
484.40	32.28
484.75	18.72
485.10	5.81
485.45	2.58
485.80	-5.81
486.15	0.65
486.50	-16.14
486.85	-5.17
487.20	4.52
487.55	16.46
487.89	24.86
488.24	20.98
488.59	-4.84
488.94	1.61
489.29	-5.17
489.64	-1.61
489.99	-13.88
490.34	-25.18
490.68	-23.24
491.03	-23.89
491.38	-33.57
491.73	-11.94
492.08	-8.39
492.43	-2.58
492.78	21.63
493.12	23.24
493.47	40.68
493.82	28.73
494.17	-3.87
494.52	-11.30
494.87	-11.62
495.21	-6.78
495.56	0.65
495.91	-1.29
496.26	15.82
496.61	33.90
496.95	30.99
497.30	30.35
497.65	12.59
498.00	13.88
498.35	12.59
498.69	4.20
499.04	9.68
499.39	6.78
499.74	-6.78
500.08	-2.91
500.43	-5.81
500.78	0.00
501.13	7.10
501.48	-1.94
501.82	-0.97
502.17	-0.65
502.52	-0.97
502.86	-3.23
503.21	-2.91
503.56	-4.84
503.91	0.65
504.25	-0.32
504.60	21.31
504.95	25.18
505.30	30.02
505.64	23.89
505.99	19.69
506.34	21.95
506.68	20.98
507.03	17.76
507.38	20.34
507.72	11.94
508.07	17.11
508.42	17.11
508.76	4.84
509.11	14.20
509.46	18.40
509.80	12.59
510.15	5.17
510.50	2.58
510.84	0.97
511.19	15.82
511.54	22.28
511.88	9.36
512.23	10.98
512.57	20.34
512.92	21.63
513.27	26.47
513.61	5.17
513.96	-4.52
514.31	1.29
514.65	5.49
515.00	17.11
515.34	9.68
515.69	1.29
516.03	13.56
516.38	13.88
516.73	21.31
517.07	9.36
517.42	0.65
517.76	8.07
518.11	12.27
518.45	15.82
518.80	8.39
519.15	2.91
519.49	18.40
519.84	18.08
520.18	20.02
520.53	12.27
520.87	20.34
521.22	25.83
521.56	12.59
521.91	15.50
522.25	16.79
522.60	12.27
522.94	16.79
523.29	4.52
523.63	5.49
523.98	31.64
524.32	10.33
524.67	15.17
525.01	21.95
525.36	44.87
525.70	41.32
526.05	53.59
526.39	39.06
526.74	41.65
527.08	41.00
527.43	34.87
527.77	18.40
528.12	24.54
528.46	7.10
528.80	17.11
529.15	39.06
529.49	44.55
529.84	61.66
530.18	65.21
530.53	74.25
530.87	81.68
531.21	75.54
531.56	52.30
531.90	40.35
532.25	4.52
532.59	0.97
532.93	-3.23
533.28	3.55
533.62	8.07
533.97	14.20
534.31	6.46
534.65	22.92
535.00	16.46
535.34	15.50
535.68	19.37
536.03	17.76
536.37	13.24
536.71	20.34
537.06	37.13
537.40	54.56
537.74	58.11
538.09	44.55
538.43	27.12
538.77	42.29
539.12	58.43
539.46	45.52
539.80	45.52
540.15	42.61
540.49	42.29
540.83	42.61
541.18	38.74
541.52	42.29
541.86	39.06
542.20	26.47
542.55	35.51
542.89	50.36
543.23	61.98
543.58	74.90
543.92	69.09
544.26	70.70
544.60	85.55
544.95	64.24
545.29	56.50
545.63	63.60
545.97	56.82
546.32	63.28
546.66	64.57
547.00	48.10
547.34	74.57
547.68	71.67
548.03	76.83
548.37	71.99
548.71	61.98
549.05	83.94
549.39	103.31
549.74	94.27
550.08	92.33
550.42	76.19
550.76	76.83
551.10	83.61
551.45	74.90
551.79	44.87
552.13	38.42
552.47	36.48
552.81	48.10
553.15	51.01
553.50	47.13
553.84	36.48
554.18	57.46
554.52	64.89
554.86	82.97
555.20	89.10
555.54	86.52
555.88	72.31
556.23	77.48
556.57	96.20
556.91	89.10
557.25	77.16
557.59	62.63
557.93	60.05
558.27	64.57
558.61	64.89
558.95	51.01
559.29	72.96
559.64	83.29
559.98	79.42
560.32	84.26
560.66	89.75
561.00	90.72
561.34	78.13
561.68	53.91
562.02	30.02
562.36	46.49
562.70	49.72
563.04	49.39
563.38	48.75
563.72	59.08
564.06	77.16
564.40	101.69
564.74	99.11
565.08	87.16
565.42	84.26
565.76	78.13
566.10	82.32
566.44	65.54
566.78	64.89
567.12	55.85
567.46	61.34
567.80	60.37
568.14	62.31
568.48	61.98
568.82	52.94
569.16	54.56
569.50	70.70
569.84	72.31
570.18	136.88
570.52	140.43
570.86	128.81
571.20	151.09
571.54	129.78
571.88	131.72
572.22	130.42
572.55	80.06
572.89	75.22
573.23	61.34
573.57	57.46
573.91	70.70
574.25	67.79
574.59	73.93
574.93	65.53
575.27	56.50
575.61	67.47
575.94	54.88
576.28	53.59
576.62	57.79
576.96	62.95
577.30	62.63
577.64	78.13
577.98	86.20
578.32	89.10
578.65	74.57
578.99	61.66
579.33	45.52
579.67	49.72
580.01	49.07
580.35	30.35
580.68	31.96
581.02	44.23
581.36	64.24
581.70	65.86
582.04	41.97
582.37	43.26
582.71	59.40
583.05	56.82
583.39	43.58
583.73	21.63
584.06	28.73
584.40	59.72
584.74	69.73
585.08	82.00
585.41	90.72
585.75	92.98
586.09	100.08
586.43	87.49
586.76	73.93
587.10	54.88
587.44	51.33
587.78	30.67
588.11	50.36
588.45	40.03
588.79	38.42
589.13	27.76
589.46	16.46
589.80	0.00
590.14	17.11
590.47	-4.20
590.81	2.58
591.15	9.36
591.48	7.75
591.82	31.96
592.16	45.52
592.50	42.61
592.83	45.20
593.17	48.42
593.51	53.27
593.84	70.38
594.18	72.31
594.51	72.64
594.85	75.22
595.19	88.46
595.52	89.75
595.86	92.01
596.20	90.39
596.53	76.51
596.87	69.41
597.21	70.05
597.54	60.37
597.88	38.74
598.21	30.67
598.55	32.61
598.89	45.20
599.22	37.45
599.56	20.98
599.89	29.05
600.23	45.52
600.57	57.14
600.90	51.65
601.24	49.72
601.57	63.92
601.91	78.45
602.24	73.28
602.58	73.61
602.91	61.66
603.25	65.53
603.58	57.46
603.92	49.07
604.26	61.02
604.59	64.89
604.93	62.31
605.26	55.53
605.60	39.71
605.93	41.65
606.27	43.26
606.60	41.97
606.94	36.16
607.27	28.41
607.61	32.28
607.94	48.75
608.28	53.27
608.61	46.81
608.95	56.50
609.28	55.53
609.61	61.02
609.95	67.79
610.28	44.55
610.62	27.44
610.95	23.89
611.29	-15.82
611.62	-23.57
611.96	-27.44
612.29	-26.47
612.62	-10.33
612.96	17.11
613.29	25.50
613.63	37.45
613.96	51.98
614.29	49.72
614.63	40.68
614.96	33.25
615.30	14.20
615.63	8.72
615.96	13.24
616.30	0.65
616.63	10.01
616.97	21.31
617.30	36.48
617.63	43.26
617.97	62.63
618.30	50.04
618.63	60.05
618.97	65.86
619.30	63.92
619.63	45.84
619.97	41.97
620.30	16.14
620.63	29.70
620.97	32.28
621.30	14.85
621.63	16.14
621.97	17.11
622.30	15.50
622.63	26.80
622.96	24.21
623.30	22.92
623.63	29.70
623.96	2.58
624.30	8.07
624.63	1.61
624.96	-4.84
625.29	-6.13
625.63	-19.05
625.96	-2.26
626.29	26.80
626.62	20.34
626.96	26.15
627.29	35.83
627.62	26.15
627.95	47.46
628.28	20.66
628.62	6.78
628.95	12.59
629.28	23.57
629.61	12.91
629.95	29.05
630.28	10.65
630.61	14.85
630.94	16.14
631.27	23.89
631.60	19.69
631.94	27.44
632.27	28.41
632.60	33.57
632.93	49.07
633.26	57.46
633.59	50.68
633.93	47.78
634.26	36.80
634.59	43.91
634.92	42.29
635.25	24.86
635.58	21.31
635.91	28.73
636.24	32.28
636.58	42.61
636.91	21.31
637.24	10.33
637.57	17.76
637.90	23.24
638.23	14.53
638.56	17.76
638.89	19.69
639.22	45.84
639.55	67.79
639.88	63.60
640.22	55.53
640.55	57.14
640.88	44.23
641.21	51.01
641.54	26.47
641.87	-1.29
642.20	6.78
642.53	15.50
642.86	14.20
643.19	5.81
643.52	5.17
643.85	19.69
644.18	30.35
644.51	26.80
644.84	20.34
645.17	18.08
645.50	20.66
645.83	-5.49
646.16	-4.84
646.49	-2.58
646.82	-0.32
647.15	2.91
647.48	0.32
647.81	7.75
648.14	11.62
648.47	7.43
648.80	3.87
649.13	7.75
649.46	-4.84
649.79	-5.49
650.11	8.72
650.44	24.54
650.77	18.72
651.10	37.45
651.43	24.54
651.76	13.24
652.09	13.24
652.42	-5.81
652.75	-1.94
653.08	-3.55
653.41	4.52
653.73	13.88
654.06	31.31
654.39	29.70
654.72	37.77
655.05	34.54
655.38	36.48
655.71	7.43
656.04	6.46
656.36	9.04
656.69	16.79
657.02	14.20
657.35	8.07
657.68	19.69
658.01	27.44
658.33	36.48
658.66	25.50
658.99	20.66
659.32	-0.00
659.65	-10.33
659.97	-38.09
660.30	-37.13
660.63	-65.86
660.96	-64.89
661.29	-57.79
661.61	-39.71
661.94	-26.80
662.27	-1.94
662.60	-3.23
662.92	13.24
663.25	5.49
663.58	10.01
663.91	22.60
664.23	31.31
664.56	8.39
664.89	9.36
665.22	11.94
665.54	27.12
665.87	23.89
666.20	14.53
666.53	3.23
666.85	15.82
667.18	30.35
667.51	35.51
667.83	34.22
668.16	31.64
668.49	42.61
668.81	45.84
669.14	67.79
669.47	59.72
669.79	51.01
670.12	62.31
670.45	44.23
670.77	37.45
671.10	24.54
671.43	8.39
671.75	1.94
672.08	-0.32
672.41	-2.26
672.73	8.07
673.06	0.32
673.39	8.07
673.71	9.36
674.04	5.81
674.36	6.78
674.69	-4.20
675.02	9.04
675.34	-0.65
675.67	-3.87
675.99	-10.01
676.32	-19.69
676.64	-44.55
676.97	-44.87
677.30	-64.89
677.62	-66.83
677.95	-66.50
678.27	-73.93
678.60	-60.69
678.92	-38.09
679.25	-23.57
679.57	-8.07
679.90	7.43
680.22	10.01
680.55	19.05
680.88	18.08
681.20	35.83
681.53	16.46
681.85	10.65
682.18	5.17
682.50	24.86
682.83	44.55
683.15	45.84
683.47	27.12
683.80	35.83
684.12	34.22
684.45	46.49
684.77	24.21
685.10	11.62
685.42	25.83
685.75	32.93
686.07	22.92
686.40	16.79
686.72	-3.87
687.04	18.72
687.37	13.24
687.69	0.32
688.02	-2.26
688.34	7.43
688.67	22.92
688.99	26.15
689.31	3.55
689.64	-1.94
689.96	-4.20
690.28	-10.33
690.61	-3.55
690.93	-0.97
691.26	11.30
691.58	6.13
691.90	19.37
692.23	18.40
692.55	13.56
692.87	6.13
693.20	-1.94
693.52	-2.91
693.84	7.75
694.17	10.65
694.49	21.63
694.81	22.60
695.14	15.82
695.46	23.24
695.78	28.09
696.11	31.96
696.43	20.02
696.75	22.28
697.08	46.81
697.40	41.32
697.72	38.74
698.04	16.14
698.37	10.01
698.69	5.49
699.01	-13.88
699.33	-29.05
699.66	-20.02
699.98	-24.54
700.30	-14.20
700.62	-10.01
700.95	-3.87
701.27	6.78
701.59	8.07
701.91	19.05
702.24	-2.26
702.56	12.27
702.88	3.23
703.20	7.10
703.52	7.75
703.85	-6.46
704.17	-23.24
704.49	9.04
704.81	1.61
705.13	20.02
705.45	27.12
705.78	17.76
706.10	33.25
706.42	43.58
706.74	42.94
707.06	38.42
707.38	24.21
707.71	2.26
708.03	10.01
708.35	12.27
708.67	15.82
708.99	17.43
709.31	12.27
709.63	7.43
709.95	13.56
710.27	3.87
710.60	-5.81
710.92	-12.91
711.24	-26.47
711.56	-33.25
711.88	-34.54
712.20	-15.50
712.52	-8.39
712.84	-4.20
713.16	-11.62
713.48	-8.07
713.80	3.23
714.12	12.27
714.44	9.04
714.76	9.68
715.08	27.76
715.40	62.63
715.72	51.01
716.04	54.56
716.36	46.17
716.68	21.31
717.00	31.31
717.32	15.50
717.64	-3.87
717.96	-5.81
718.28	-9.68
718.60	11.94
718.92	9.04
719.24	-0.97
719.56	-12.27
719.88	-26.80
720.20	2.91
720.52	13.56
720.84	3.23
721.16	16.14
721.48	10.98
721.80	24.21
722.12	20.98
722.44	7.10
722.76	0.32
723.08	4.84
723.40	5.17
723.72	5.49
724.03	9.36
724.35	10.33
724.67	17.76
724.99	0.65
725.31	-9.68
725.63	-8.72
725.95	2.91
726.27	-5.17
726.58	8.39
726.90	-1.61
727.22	2.91
727.54	0.00
727.86	0.65
728.18	7.10
728.50	1.29
728.81	-9.04
729.13	1.61
729.45	16.79
729.77	17.43
730.09	6.46
730.40	-5.81
730.72	8.39
731.04	16.14
731.36	8.72
731.68	11.94
731.99	12.91
732.31	35.83
732.63	44.55
732.95	34.22
733.27	26.80
733.58	26.80
733.90	20.34
734.22	19.05
734.54	7.43
734.85	6.46
735.17	10.33
735.49	18.08
735.80	2.26
736.12	7.43
736.44	23.24
736.76	18.72
737.07	9.36
737.39	5.81
737.71	-13.56
738.02	-15.82
738.34	-30.67
738.66	-41.97
738.97	-34.54
739.29	-21.31
739.61	-15.50
739.93	-0.65
740.24	25.50
740.56	38.42
740.87	45.20
741.19	31.96
741.51	12.27
741.82	7.43
742.14	18.72
742.46	-4.52
742.77	-8.07
743.09	-8.39
743.41	0.65
743.72	14.85
744.04	14.20
744.35	7.43
744.67	26.15
744.99	17.43
745.30	13.88
745.62	2.58
745.93	1.94
746.25	25.18
746.56	8.39
746.88	-1.29
747.20	1.29
747.51	-15.17
747.83	-11.94
748.14	-33.90
748.46	-58.76
748.77	-41.32
749.09	-61.66
749.40	-57.79
749.72	-53.59
750.03	-55.20
750.35	-31.96
750.66	-21.95
750.98	-24.54
751.29	2.91
751.61	12.59
751.92	28.41
752.24	40.68
752.55	21.31
752.87	10.01
753.18	3.87
753.50	-3.87
753.81	-16.46
754.13	-28.09
754.44	-24.54
754.76	-30.67
755.07	-20.98
755.38	-4.20
755.70	-6.46
756.01	-26.15
756.33	-21.31
756.64	-30.67
756.95	-20.02
757.27	-26.15
757.58	-39.71
757.90	-47.78
758.21	-19.69
758.52	-20.66
758.84	-21.31
759.15	-29.38
759.47	-17.11
759.78	-9.36
760.09	17.76
760.41	3.55
760.72	-5.81
761.03	7.75
761.35	18.72
761.66	10.98
761.97	4.52
762.29	-13.88
762.60	-23.24
762.91	-15.82
763.23	-23.89
763.54	-24.86
763.85	-21.95
764.17	-16.14
764.48	-3.87
764.79	11.30
765.10	3.23
765.42	4.20
765.73	17.11
766.04	31.31
766.36	39.06
766.67	23.24
766.98	32.61
767.29	42.29
767.61	32.61
767.92	24.21
768.23	5.49
768.54	-12.27
768.86	-13.88
769.17	-10.01
769.48	-4.52
769.79	-5.17
770.10	8.39
770.42	7.75
770.73	10.98
771.04	9.04
771.35	0.97
771.66	-1.61
771.98	-3.87
772.29	-34.54
772.60	-34.87
772.91	-33.57
773.22	-23.57
773.53	-26.15
773.85	-22.60
774.16	-24.21
774.47	-19.37
774.78	-22.92
775.09	-29.05
775.40	-23.89
775.71	-18.72
776.02	-10.98
776.34	8.07
776.65	21.31
776.96	23.57
777.27	30.67
777.58	22.60
777.89	28.09
778.20	5.49
778.51	0.32
778.82	-7.43
779.13	-10.65
779.44	-30.67
779.75	-22.92
780.06	-37.13
780.38	-31.96
780.69	-45.84
781.00	-43.26
781.31	-50.36
781.62	-20.02
781.93	-26.15
782.24	-22.28
782.55	-23.24
782.86	-21.31
783.17	-30.67
783.48	-18.08
783.79	-10.98
784.10	-1.61
784.41	-3.55
784.72	-9.68
785.03	-1.61
785.34	19.05
785.65	12.91
785.96	-2.91
786.27	-7.75
786.57	-8.39
786.88	6.46
787.19	11.94
787.50	8.07
787.81	11.62
788.12	3.87
788.43	3.23
788.74	7.43
789.05	-10.65
789.36	-17.76
789.67	-16.46
789.98	-17.43
790.29	-2.91
790.59	-5.17
790.90	-7.43
791.21	0.32
791.52	0.32
791.83	0.97
792.14	14.53
792.45	-8.39
792.75	-2.26
793.06	6.46
793.37	9.68
793.68	5.81
793.99	-6.78
794.30	-19.69
794.60	6.13
794.91	1.29
795.22	-12.27
795.53	-11.94
795.84	-17.76
796.15	2.26
796.45	-2.26
796.76	-23.24
797.07	-28.09
797.38	-18.40
797.68	-21.95
797.99	-6.46
798.30	-17.11
798.61	-21.95
798.91	-13.24
799.22	0.00
799.53	-4.20
799.84	11.94
800.14	-2.91
800.45	3.87
800.76	20.98
801.07	23.89
801.37	18.08
801.68	4.84
801.99	0.00
802.29	27.76
802.60	16.14
802.91	1.61
803.22	6.46
803.52	-11.62
803.83	6.13
804.14	10.65
804.44	-7.75
804.75	-7.10
805.06	9.36
805.36	19.37
805.67	35.51
805.97	20.02
806.28	6.46
806.59	25.83
806.89	28.73
807.20	25.18
807.51	9.36
807.81	20.34
808.12	39.06
808.42	61.02
808.73	50.68
809.04	56.50
809.34	57.14
809.65	41.97
809.95	38.42
810.26	34.87
810.56	23.57
810.87	36.80
811.18	35.19
811.48	29.05
811.79	42.61
812.09	37.45
812.40	22.92
812.70	10.65
813.01	-16.79
813.31	-29.05
813.62	-14.53
813.92	-10.98
814.23	-18.40
814.53	-23.24
814.84	-11.30
815.14	17.76
815.45	25.50
815.75	30.99
816.06	20.66
816.36	15.82
816.67	40.35
816.97	31.96
817.28	28.41
817.58	31.64
817.89	20.02
818.19	23.24
818.49	12.91
818.80	0.65
819.10	8.07
819.41	-4.20
819.71	-9.36
820.01	-27.12
820.32	-33.90
820.62	-1.94
820.93	6.13
821.23	4.52
821.53	-11.94
821.84	-8.07
822.14	0.65
822.45	11.30
822.75	-4.84
823.05	-3.23
823.36	-13.24
823.66	-12.59
823.96	-13.88
824.27	-9.68
824.57	-11.30
824.87	-4.52
825.18	-3.87
825.48	10.65
825.78	10.98
826.09	8.72
826.39	-15.82
826.69	-22.92
827.00	-25.18
827.30	-9.68
827.60	-23.24
827.90	-20.34
828.21	-14.85
828.51	13.24
828.81	25.18
829.11	16.14
829.42	0.32
829.72	18.40
830.02	16.79
830.32	13.88
830.63	-12.27
830.93	-30.35
831.23	-24.21
831.53	-30.99
831.84	-46.49
832.14	-18.40
832.44	-3.87
832.74	27.44
833.04	43.26
833.35	41.00
833.65	59.72
833.95	77.16
834.25	52.30
834.55	50.68
834.85	35.83
835.16	48.10
835.46	44.23
835.76	20.66
836.06	-7.10
836.36	1.94
836.66	-26.15
836.96	-28.09
837.26	-53.27
837.57	-37.77
837.87	-10.33
838.17	12.27
838.47	2.26
838.77	21.63
839.07	30.02
839.37	28.09
839.67	28.09
839.97	14.20
840.27	9.68
840.57	22.60
840.88	20.02
841.18	25.18
841.48	40.68
841.78	41.00
842.08	34.22
842.38	26.80
842.68	22.28
842.98	20.34
843.28	2.26
843.58	-0.32
843.88	-12.59
844.18	-29.70
844.48	-38.09
844.78	-41.32
845.08	-42.29
845.38	-30.35
845.68	-19.37
845.98	-22.28
846.28	-5.81
846.58	0.00
846.88	7.43
847.18	11.30
847.48	5.49
847.78	3.87
848.07	12.27
848.37	14.85
848.67	27.12
848.97	18.08
849.27	24.54
849.57	21.95
849.87	11.62
850.17	6.78
850.47	-6.13
850.77	-16.79
851.07	-24.21
851.36	-52.62
851.66	-44.55
851.96	-39.06
852.26	-42.61
852.56	-33.90
852.86	-21.95
853.16	-5.49
853.45	14.53
853.75	21.95
854.05	7.43
854.35	18.40
854.65	24.21
854.95	4.52
855.24	-14.85
855.54	-1.29
855.84	-21.31
856.14	-9.04
856.44	-28.09
856.73	-23.57
857.03	-3.55
857.33	9.36
857.63	-5.49
857.93	5.81
858.22	3.23
858.52	23.57
858.82	10.65
859.12	12.91
859.41	8.72
859.71	15.82
860.01	19.05
860.30	15.82
860.60	-7.75
860.90	3.55
861.20	-4.52
861.49	2.26
861.79	-7.75
862.09	-16.46
862.38	-6.46
862.68	19.69
862.98	12.27
863.27	8.72
863.57	7.10
863.87	6.78
864.16	25.18
864.46	16.46
864.76	-2.26
865.05	-8.07
865.35	7.10
865.65	8.72
865.94	24.54
866.24	10.01
866.54	10.98
866.83	14.20
867.13	-0.97
867.42	-24.86
867.72	-32.61
868.02	-43.26
868.31	-36.16
868.61	-36.80
868.90	-29.70
869.20	-10.33
869.49	4.52
869.79	4.52
870.08	12.91
870.38	1.29
870.68	15.17
870.97	15.17
871.27	11.30
871.56	26.80
871.86	19.37
872.15	4.20
872.45	7.75
872.74	-13.56
873.04	-14.53
873.33	-8.39
873.63	-32.93
873.92	-26.80
874.22	-17.11
874.51	-11.62
874.81	2.91
875.10	6.46
875.40	12.27
875.69	12.27
875.98	4.84
876.28	-4.84
876.57	-12.91
876.87	-28.73
877.16	-49.07
877.46	-57.46
877.75	-48.10
878.04	-45.84
878.34	-46.49
878.63	-43.91
878.93	-32.93
879.22	-21.31
879.51	-18.40
879.81	-33.90
880.10	-28.73
880.40	-28.73
880.69	-41.32
880.98	-27.44
881.28	-32.28
881.57	-49.72
881.86	-52.30
882.16	-60.37
882.45	-39.71
882.74	-24.54
883.04	-36.16
883.33	-25.50
883.62	0.32
883.92	15.82
884.21	0.00
884.50	76.83
>>>>>End Processed Spectral Data<<<<<
