SpectraSuite Data File
++++++++++++++++++++++++++++++++++++
Date: Thu Mar 23 14:07:16 EDT 2017
User: Administrator
Dark Spectrum Present: Yes
Reference Spectrum Present: No
Number of Sampled Component Spectra: 1
Spectrometers: SB2+H01071
Integration Time (usec): 5000000 (SB2+H01071)
Spectra Averaged: 1 (SB2+H01071)
Boxcar Smoothing: 3 (SB2+H01071)
Correct for Electrical Dark: No (SB2+H01071)
Strobe/Lamp Enabled: No (SB2+H01071)
Correct for Detector Non-linearity: No (SB2+H01071)
Correct for Stray Light: No (SB2+H01071)
Number of Pixels in Processed Spectrum: 2048
>>>>>Begin Processed Spectral Data<<<<<
191.06	67.79
191.43	67.79
191.81	67.79
192.19	13.56
192.56	-5.81
192.94	-24.86
193.31	-25.50
193.69	-27.44
194.07	-20.02
194.44	-3.23
194.82	-13.88
195.19	-1.61
195.57	11.30
195.95	-7.43
196.32	-4.84
196.70	-14.20
197.07	-29.05
197.45	-32.28
197.83	-28.09
198.20	-35.19
198.58	-25.83
198.95	-23.89
199.33	-2.58
199.70	7.75
200.08	17.11
200.46	-5.17
200.83	8.39
201.21	-2.26
201.58	2.26
201.96	-0.65
202.33	-9.68
202.71	-12.91
203.09	-7.43
203.46	-7.75
203.84	-5.49
204.21	-15.50
204.59	-17.11
204.96	-5.17
205.34	2.58
205.71	15.82
206.09	0.97
206.46	7.75
206.84	15.50
207.21	18.40
207.59	19.37
207.96	20.66
208.34	14.53
208.71	14.53
209.09	34.54
209.46	23.24
209.84	11.94
210.21	13.88
210.59	20.66
210.96	18.40
211.34	28.09
211.71	-0.65
212.09	12.27
212.46	21.95
212.84	10.98
213.21	-5.49
213.59	5.81
213.96	-4.20
214.34	6.78
214.71	-19.05
215.08	-17.11
215.46	-23.24
215.83	-14.53
216.21	-11.30
216.58	-4.84
216.96	-14.85
217.33	14.20
217.70	2.26
218.08	3.87
218.45	-11.94
218.83	-2.26
219.20	-8.39
219.58	10.65
219.95	7.75
220.32	18.40
220.70	16.46
221.07	33.90
221.45	12.27
221.82	13.56
222.19	3.23
222.57	-2.91
222.94	-0.32
223.32	14.85
223.69	1.61
224.06	-8.39
224.44	12.91
224.81	26.15
225.18	51.98
225.56	45.52
225.93	42.61
226.31	47.78
226.68	57.46
227.05	32.28
227.43	10.65
227.80	-19.69
228.17	-17.11
228.55	-29.05
228.92	-20.02
229.29	-18.40
229.67	-9.04
230.04	8.07
230.41	13.88
230.79	18.72
231.16	42.61
231.53	39.71
231.91	39.06
232.28	32.93
232.65	17.43
233.03	6.78
233.40	-24.21
233.77	-27.12
234.15	-28.41
234.52	-32.61
234.89	-21.63
235.26	-6.46
235.64	-5.81
236.01	21.31
236.38	18.40
236.76	19.37
237.13	29.70
237.50	28.41
237.87	4.52
238.25	12.59
238.62	-9.04
238.99	-26.47
239.36	-32.28
239.74	-37.13
240.11	-47.78
240.48	-39.39
240.85	-32.61
241.23	-20.98
241.60	2.26
241.97	11.30
242.34	13.56
242.72	7.10
243.09	16.79
243.46	6.78
243.83	-10.98
244.20	-6.78
244.58	-8.39
244.95	-10.01
245.32	-1.29
245.69	-11.30
246.07	-16.14
246.44	8.39
246.81	-20.66
247.18	-19.37
247.55	-14.85
247.92	6.78
248.30	24.54
248.67	37.77
249.04	31.64
249.41	25.83
249.78	11.30
250.16	5.81
250.53	-1.61
250.90	3.23
251.27	-9.04
251.64	4.20
252.01	26.15
252.39	38.74
252.76	43.58
253.13	31.64
253.50	14.20
253.87	23.57
254.24	19.05
254.61	7.10
254.98	17.11
255.36	18.40
255.73	23.89
256.10	30.02
256.47	29.70
256.84	27.44
257.21	36.16
257.58	13.88
257.95	5.81
258.33	-10.65
258.70	-2.58
259.07	10.65
259.44	11.30
259.81	23.89
260.18	27.44
260.55	30.35
260.92	43.26
261.29	22.92
261.66	-8.72
262.03	-6.13
262.40	-32.28
262.77	-30.02
263.15	-15.50
263.52	-15.82
263.89	19.37
264.26	42.94
264.63	45.20
265.00	51.01
265.37	63.60
265.74	48.42
266.11	47.78
266.48	31.64
266.85	25.18
267.22	33.90
267.59	24.86
267.96	21.95
268.33	33.90
268.70	38.09
269.07	26.80
269.44	23.89
269.81	17.43
270.18	45.20
270.55	46.81
270.92	45.20
271.29	33.57
271.66	32.28
272.03	44.87
272.40	44.23
272.77	24.86
273.14	-9.36
273.51	-16.14
273.88	-15.82
274.25	-11.62
274.62	-24.86
274.99	-33.25
275.36	-21.95
275.73	12.27
276.10	0.32
276.47	10.65
276.84	10.01
277.21	10.65
277.58	-6.78
277.94	-15.50
278.31	-40.03
278.68	-28.09
279.05	-37.45
279.42	-32.61
279.79	-34.54
280.16	-25.18
280.53	-10.01
280.90	-7.10
281.27	-4.84
281.64	1.61
282.01	1.29
282.37	-1.61
282.74	-0.97
283.11	-10.33
283.48	-3.23
283.85	-8.39
284.22	-4.84
284.59	-21.63
284.96	-4.20
285.33	0.97
285.69	-9.36
286.06	0.97
286.43	-10.98
286.80	-17.43
287.17	-11.94
287.54	-14.85
287.91	-14.53
288.27	-8.72
288.64	-19.37
289.01	-3.23
289.38	8.72
289.75	9.04
290.12	-9.68
290.48	2.26
290.85	8.39
291.22	15.82
291.59	6.13
291.96	-19.05
292.33	-21.63
292.69	-11.30
293.06	-17.76
293.43	-0.32
293.80	-2.91
294.17	12.59
294.53	32.61
294.90	43.91
295.27	23.89
295.64	14.20
296.01	-9.68
296.37	-5.49
296.74	-6.78
297.11	-1.94
297.48	2.26
297.84	16.46
298.21	10.98
298.58	20.98
298.95	24.86
299.31	20.98
299.68	11.94
300.05	6.78
300.42	10.98
300.78	15.82
301.15	7.75
301.52	-3.23
301.89	-12.91
302.25	-9.04
302.62	-11.62
302.99	7.10
303.35	14.20
303.72	16.46
304.09	20.66
304.46	34.22
304.82	33.25
305.19	49.39
305.56	36.80
305.92	27.12
306.29	27.12
306.66	44.23
307.02	30.99
307.39	41.00
307.76	30.99
308.12	38.42
308.49	46.49
308.86	29.70
309.23	19.05
309.59	15.82
309.96	-12.27
310.32	-13.88
310.69	-32.61
311.06	-34.54
311.42	-18.40
311.79	-14.85
312.16	-8.07
312.52	7.43
312.89	1.94
313.26	8.39
313.62	7.75
313.99	-6.13
314.35	-8.72
314.72	-6.46
315.09	8.39
315.45	20.98
315.82	18.72
316.19	16.46
316.55	26.80
316.92	28.73
317.28	27.44
317.65	21.31
318.02	-0.32
318.38	5.81
318.75	5.81
319.11	1.94
319.48	-23.57
319.84	-18.08
320.21	-10.01
320.58	-5.17
320.94	-16.14
321.31	-10.98
321.67	-10.01
322.04	25.83
322.40	20.98
322.77	4.52
323.13	2.26
323.50	-2.26
323.86	-6.78
324.23	6.46
324.60	-16.46
324.96	-9.04
325.33	-16.79
325.69	-13.88
326.06	2.26
326.42	8.39
326.79	-5.81
327.15	1.94
327.52	-12.27
327.88	0.97
328.25	9.04
328.61	16.14
328.98	17.11
329.34	15.17
329.71	8.07
330.07	6.78
330.44	-0.32
330.80	-12.27
331.16	-20.34
331.53	-27.44
331.89	-33.90
332.26	-42.61
332.62	-32.28
332.99	-40.35
333.35	-44.87
333.72	-59.40
334.08	-53.91
334.45	-26.80
334.81	-12.59
335.17	-30.02
335.54	-17.76
335.90	-5.49
336.27	-8.39
336.63	-20.66
337.00	-19.37
337.36	-28.09
337.72	-6.13
338.09	-0.65
338.45	9.68
338.82	14.20
339.18	25.50
339.54	20.66
339.91	20.34
340.27	8.72
340.63	-3.55
341.00	-3.87
341.36	0.97
341.73	6.78
342.09	1.61
342.45	0.00
342.82	0.65
343.18	12.59
343.54	4.84
343.91	10.01
344.27	10.01
344.63	9.68
345.00	24.54
345.36	19.05
345.72	-5.17
346.09	-8.07
346.45	-3.23
346.81	-17.11
347.18	-23.24
347.54	-19.69
347.90	-8.07
348.27	-1.61
348.63	14.53
348.99	21.95
349.36	36.80
349.72	35.51
350.08	25.18
350.45	8.39
350.81	6.46
351.17	-22.92
351.53	-41.65
351.90	-49.72
352.26	-47.13
352.62	-60.69
352.98	-43.58
353.35	-33.90
353.71	-25.50
354.07	-19.05
354.44	-7.43
354.80	1.61
355.16	22.28
355.52	10.98
355.88	19.05
356.25	21.95
356.61	30.35
356.97	18.72
357.33	12.27
357.70	8.39
358.06	17.76
358.42	-0.65
358.78	5.81
359.15	0.65
359.51	-5.49
359.87	-10.01
360.23	-18.08
360.59	-16.46
360.95	0.65
361.32	-15.82
361.68	-11.62
362.04	-12.27
362.40	3.55
362.76	-0.65
363.13	1.29
363.49	3.87
363.85	10.33
364.21	-1.29
364.57	8.07
364.93	-1.94
365.30	10.65
365.66	11.62
366.02	12.27
366.38	26.47
366.74	36.48
367.10	35.51
367.46	41.32
367.83	32.93
368.19	15.82
368.55	17.76
368.91	13.88
369.27	3.87
369.63	-7.43
369.99	-13.56
370.35	-9.36
370.71	5.17
371.08	-8.72
371.44	-8.72
371.80	0.32
372.16	8.72
372.52	11.62
372.88	3.87
373.24	-8.39
373.60	-1.94
373.96	5.81
374.32	11.30
374.68	10.98
375.04	2.58
375.40	15.50
375.76	17.76
376.13	19.05
376.49	9.04
376.85	-6.46
377.21	-12.91
377.57	-14.85
377.93	-16.79
378.29	-21.31
378.65	-29.05
379.01	-40.68
379.37	-47.46
379.73	-54.24
380.09	-46.17
380.45	-54.56
380.81	-36.16
381.17	-31.31
381.53	-20.98
381.89	-8.72
382.25	11.62
382.61	23.89
382.97	23.57
383.33	23.57
383.69	12.91
384.05	10.98
384.41	18.72
384.77	5.49
385.13	-1.94
385.49	0.97
385.85	-7.10
386.20	7.10
386.56	9.36
386.92	-7.43
387.28	10.98
387.64	0.65
388.00	-7.10
388.36	14.20
388.72	1.29
389.08	-11.30
389.44	-7.10
389.80	-22.92
390.16	-16.46
390.52	-12.27
390.88	-33.25
391.23	-31.96
391.59	-17.43
391.95	-32.28
392.31	-16.46
392.67	-9.36
393.03	-3.87
393.39	-11.62
393.75	5.17
394.11	15.17
394.46	25.83
394.82	19.69
395.18	7.43
395.54	6.13
395.90	4.20
396.26	-15.17
396.62	-36.80
396.97	-38.42
397.33	-43.91
397.69	-37.13
398.05	-41.00
398.41	-33.25
398.77	-24.86
399.12	-14.20
399.48	7.43
399.84	9.68
400.20	18.40
400.56	24.54
400.91	37.13
401.27	25.50
401.63	29.38
401.99	8.39
402.35	15.17
402.70	8.72
403.06	10.65
403.42	0.97
403.78	4.84
404.14	-0.97
404.49	10.01
404.85	10.98
405.21	-6.78
405.57	-3.55
405.92	-10.33
406.28	8.39
406.64	5.17
407.00	6.78
407.35	-2.26
407.71	10.01
408.07	14.20
408.43	26.80
408.78	10.65
409.14	16.79
409.50	16.14
409.85	13.56
410.21	10.33
410.57	-2.58
410.93	-17.43
411.28	-10.33
411.64	-5.49
412.00	0.65
412.35	5.49
412.71	0.32
413.07	0.65
413.42	8.39
413.78	16.14
414.14	6.46
414.49	-5.81
414.85	-21.95
415.21	-18.08
415.56	-1.61
415.92	6.13
416.28	-23.57
416.63	-5.81
416.99	3.23
417.35	22.60
417.70	11.62
418.06	-8.39
418.42	-30.02
418.77	6.13
419.13	-3.87
419.48	-8.39
419.84	-26.15
420.20	-16.46
420.55	-0.65
420.91	15.82
421.27	-11.94
421.62	-20.66
421.98	-21.63
422.33	-11.94
422.69	-24.86
423.05	-30.02
423.40	-25.50
423.76	-4.20
424.11	6.13
424.47	6.46
424.82	-3.55
425.18	10.33
425.54	-1.61
425.89	-7.75
426.25	-15.17
426.60	-26.80
426.96	-33.90
427.31	-21.95
427.67	-15.50
428.02	-19.37
428.38	-27.76
428.73	-35.83
429.09	-40.35
429.44	-26.80
429.80	-27.12
430.15	-35.19
430.51	-10.01
430.86	-8.72
431.22	6.78
431.57	16.46
431.93	20.02
432.28	25.50
432.64	21.31
432.99	11.30
433.35	13.56
433.70	5.81
434.06	-11.94
434.41	-21.63
434.77	-20.34
435.12	-10.98
435.48	-11.94
435.83	4.84
436.19	21.31
436.54	52.94
436.89	55.85
437.25	44.87
437.60	52.62
437.96	51.98
438.31	30.67
438.67	3.55
439.02	-11.30
439.37	-27.76
439.73	-23.57
440.08	-42.61
440.44	-54.24
440.79	-35.83
441.15	-13.24
441.50	-18.08
441.85	-0.32
442.21	7.43
442.56	12.91
442.91	19.05
443.27	21.95
443.62	20.02
443.98	42.29
444.33	35.83
444.68	27.76
445.04	36.16
445.39	44.55
445.74	38.74
446.10	31.31
446.45	7.75
446.80	-9.36
447.16	-9.68
447.51	-8.72
447.86	-8.72
448.22	-30.35
448.57	-25.18
448.92	-17.43
449.28	-2.26
449.63	-11.94
449.98	-14.85
450.34	-12.91
450.69	-1.61
451.04	-7.10
451.40	6.13
451.75	-4.52
452.10	-0.32
452.45	0.32
452.81	0.97
453.16	9.68
453.51	-2.26
453.86	-13.56
454.22	-10.98
454.57	-15.50
454.92	-22.60
455.27	-33.90
455.63	-33.90
455.98	-16.79
456.33	-20.98
456.68	-4.52
457.04	5.17
457.39	2.91
457.74	10.33
458.09	-4.52
458.45	-15.82
458.80	-1.61
459.15	-2.58
459.50	7.43
459.85	20.66
460.21	28.73
460.56	34.22
460.91	33.25
461.26	23.57
461.61	17.43
461.97	10.65
462.32	4.52
462.67	-6.46
463.02	-5.17
463.37	-10.33
463.72	-15.82
464.08	-13.88
464.43	-20.98
464.78	-19.37
465.13	-16.79
465.48	-15.50
465.83	-5.49
466.18	4.84
466.54	8.39
466.89	10.01
467.24	13.24
467.59	15.50
467.94	20.66
468.29	28.41
468.64	19.05
468.99	11.94
469.34	14.53
469.70	2.58
470.05	-8.07
470.40	-6.13
470.75	-23.89
471.10	-26.47
471.45	-26.80
471.80	-30.99
472.15	-34.87
472.50	-36.80
472.85	-61.66
473.20	-38.09
473.55	-21.63
473.90	-14.85
474.25	-6.78
474.61	6.78
474.96	16.46
475.31	47.78
475.66	42.94
476.01	34.22
476.36	38.09
476.71	49.72
477.06	41.65
477.41	30.99
477.76	17.43
478.11	15.82
478.46	8.39
478.81	-16.46
479.16	-37.77
479.51	-43.91
479.86	-14.53
480.21	-10.01
480.56	-4.52
480.91	9.04
481.26	13.56
481.61	21.63
481.96	33.57
482.31	6.13
482.66	4.20
483.00	-12.27
483.35	-28.73
483.70	-9.36
484.05	20.66
484.40	31.31
484.75	36.16
485.10	29.38
485.45	28.09
485.80	34.22
486.15	43.58
486.50	11.30
486.85	-5.49
487.20	-2.26
487.55	2.26
487.89	-18.72
488.24	-15.82
488.59	-49.39
488.94	-35.19
489.29	-45.52
489.64	-29.05
489.99	-32.28
490.34	-7.10
490.68	-4.84
491.03	18.08
491.38	11.94
491.73	40.03
492.08	34.87
492.43	37.77
492.78	39.39
493.12	33.90
493.47	30.35
493.82	23.89
494.17	6.46
494.52	-4.52
494.87	-2.26
495.21	1.61
495.56	4.20
495.91	9.36
496.26	10.01
496.61	18.40
496.95	18.08
497.30	-0.32
497.65	-20.98
498.00	-14.20
498.35	-23.24
498.69	-24.86
499.04	-28.73
499.39	-29.38
499.74	-18.72
500.08	-7.75
500.43	-17.43
500.78	-12.59
501.13	-5.17
501.48	-2.91
501.82	-5.17
502.17	-10.65
502.52	3.23
502.86	1.29
503.21	3.23
503.56	0.32
503.91	-0.32
504.25	9.36
504.60	30.02
504.95	34.54
505.30	45.84
505.64	44.55
505.99	49.39
506.34	63.60
506.68	61.34
507.03	49.72
507.38	46.17
507.72	50.68
508.07	48.42
508.42	52.62
508.76	42.29
509.11	43.58
509.46	62.95
509.80	65.54
510.15	50.36
510.50	59.08
510.84	51.98
511.19	52.30
511.54	68.12
511.88	61.34
512.23	41.97
512.57	58.76
512.92	48.42
513.27	59.72
513.61	52.94
513.96	37.77
514.31	37.45
514.65	62.63
515.00	61.02
515.34	71.02
515.69	55.85
516.03	71.67
516.38	71.99
516.73	74.57
517.07	57.46
517.42	60.37
517.76	63.60
518.11	80.39
518.45	82.32
518.80	87.16
519.15	95.88
519.49	97.50
519.84	87.81
520.18	81.35
520.53	77.80
520.87	84.26
521.22	84.26
521.56	69.73
521.91	82.32
522.25	112.99
522.60	140.11
522.94	137.20
523.29	136.24
523.63	138.17
523.98	166.58
524.32	170.78
524.67	176.91
525.01	174.01
525.36	190.79
525.70	182.72
526.05	188.53
526.39	174.01
526.74	176.91
527.08	158.19
527.43	162.06
527.77	166.90
528.12	179.82
528.46	193.70
528.80	205.64
529.15	214.04
529.49	228.57
529.84	234.05
530.18	243.74
530.53	248.58
530.87	248.90
531.21	250.20
531.56	262.79
531.90	258.91
532.25	244.71
532.59	241.48
532.93	247.94
533.28	266.34
533.62	266.98
533.97	261.17
534.31	265.69
534.65	273.44
535.00	259.23
535.34	255.04
535.68	243.74
536.03	246.64
536.37	241.16
536.71	236.96
537.06	248.90
537.40	268.60
537.74	280.86
538.09	289.90
538.43	292.49
538.77	313.15
539.12	320.57
539.46	315.41
539.80	310.56
540.15	304.43
540.49	297.01
540.83	299.27
541.18	346.08
541.52	355.12
541.86	355.12
542.20	362.54
542.55	380.62
542.89	395.79
543.23	400.96
543.58	366.41
543.92	373.19
544.26	378.68
544.60	402.25
544.95	382.88
545.29	376.42
545.63	398.05
545.97	375.45
546.32	382.23
546.66	390.63
547.00	366.74
547.34	390.63
547.68	407.09
548.03	399.99
548.37	420.65
548.71	414.84
549.05	428.72
549.39	435.82
549.74	430.66
550.08	414.84
550.42	404.19
550.76	399.99
551.10	404.19
551.45	395.47
551.79	397.08
552.13	389.01
552.47	385.46
552.81	381.91
553.15	374.49
553.50	359.64
553.84	351.89
554.18	332.19
554.52	333.16
554.86	358.34
555.20	364.16
555.54	370.93
555.88	374.81
556.23	377.71
556.57	405.80
556.91	406.45
557.25	388.69
557.59	397.41
557.93	391.60
558.27	381.27
558.61	375.78
558.95	370.61
559.29	389.98
559.64	385.14
559.98	367.38
560.32	379.97
560.66	397.08
561.00	401.60
561.34	391.60
561.68	369.00
562.02	364.16
562.36	365.12
562.70	370.29
563.04	364.80
563.38	365.77
563.72	372.55
564.06	386.11
564.40	384.49
564.74	394.50
565.08	370.93
565.42	366.09
565.76	374.16
566.10	378.68
566.44	349.30
566.78	365.45
567.12	366.09
567.46	376.10
567.80	372.23
568.14	349.30
568.48	341.56
568.82	354.79
569.16	350.27
569.50	356.41
569.84	354.47
570.18	418.07
570.52	429.04
570.86	430.98
571.20	443.89
571.54	421.62
571.88	419.36
572.22	426.14
572.55	380.94
572.89	380.94
573.23	368.67
573.57	359.96
573.91	389.01
574.25	376.42
574.59	362.54
574.93	351.24
575.27	349.95
575.61	352.21
575.94	340.91
576.28	330.90
576.62	347.37
576.96	346.72
577.30	352.86
577.64	344.14
577.98	332.52
578.32	352.21
578.65	332.19
578.99	308.31
579.33	286.35
579.67	275.05
580.01	271.82
580.35	260.85
580.68	243.74
581.02	241.16
581.36	271.18
581.70	286.03
582.04	270.21
582.37	265.05
582.71	279.25
583.05	281.51
583.39	275.70
583.73	244.06
584.06	256.01
584.40	295.39
584.74	304.43
585.08	318.64
585.41	312.18
585.75	325.42
586.09	330.90
586.43	306.69
586.76	287.32
587.10	276.34
587.44	267.95
587.78	266.98
588.11	271.50
588.45	260.53
588.79	268.27
589.13	254.07
589.46	243.09
589.80	233.09
590.14	224.37
590.47	212.42
590.81	227.60
591.15	222.43
591.48	210.16
591.82	220.49
592.16	233.41
592.50	258.27
592.83	254.07
593.17	238.57
593.51	247.29
593.84	261.17
594.18	280.86
594.51	273.12
594.85	257.30
595.19	267.31
595.52	285.71
595.86	288.61
596.20	285.38
596.53	262.14
596.87	270.21
597.21	269.57
597.54	264.08
597.88	242.77
598.21	255.68
598.55	255.68
598.89	255.36
599.22	239.22
599.56	223.08
599.89	233.09
600.23	230.18
600.57	224.37
600.90	225.98
601.24	234.05
601.57	237.60
601.91	249.87
602.24	228.89
602.58	232.76
602.91	231.15
603.25	244.71
603.58	232.76
603.92	228.24
604.26	221.46
604.59	223.08
604.93	222.43
605.26	205.32
605.60	189.18
605.93	204.68
606.27	200.16
606.60	224.69
606.94	238.57
607.27	234.38
607.61	219.20
607.94	218.23
608.28	222.43
608.61	227.92
608.95	218.88
609.28	215.33
609.61	224.05
609.95	245.03
610.28	231.79
610.62	208.55
610.95	205.64
611.29	191.12
611.62	175.94
611.96	162.71
612.29	153.35
612.62	158.19
612.96	169.49
613.29	165.29
613.63	159.16
613.96	178.20
614.29	177.24
614.63	183.69
614.96	184.66
615.30	172.72
615.63	182.72
615.96	191.76
616.30	154.31
616.63	164.32
616.97	159.48
617.30	165.61
617.63	175.30
617.97	171.75
618.30	172.39
618.63	191.44
618.97	204.68
619.30	195.31
619.63	180.14
619.97	171.75
620.30	150.44
620.63	151.41
620.97	156.57
621.30	135.59
621.63	131.72
621.97	123.64
622.30	125.58
622.63	124.61
622.96	107.50
623.30	103.63
623.63	100.72
623.96	88.13
624.30	104.60
624.63	105.89
624.96	102.34
625.29	113.96
625.63	93.94
625.96	97.50
626.29	118.80
626.62	103.63
626.96	109.76
627.29	110.73
627.62	98.14
627.95	130.42
628.28	123.32
628.62	119.45
628.95	121.06
629.28	119.45
629.61	137.20
629.95	135.27
630.28	131.39
630.61	130.10
630.94	114.28
631.27	126.55
631.60	116.87
631.94	111.70
632.27	116.87
632.60	111.05
632.93	127.84
633.26	133.98
633.59	123.97
633.93	128.16
634.26	126.87
634.59	131.07
634.92	117.83
635.25	97.50
635.58	100.72
635.91	102.66
636.24	111.70
636.58	115.25
636.91	102.34
637.24	93.30
637.57	108.47
637.90	104.60
638.23	101.05
638.56	90.39
638.89	84.26
639.22	96.85
639.55	117.51
639.88	98.14
640.22	99.43
640.55	91.36
640.88	82.00
641.21	85.87
641.54	80.06
641.87	68.44
642.20	79.74
642.53	86.52
642.86	111.38
643.19	111.05
643.52	106.86
643.85	115.90
644.18	113.31
644.51	104.60
644.84	96.53
645.17	89.75
645.50	86.52
645.83	84.90
646.16	88.13
646.49	94.59
646.82	107.83
647.15	112.02
647.48	96.85
647.81	95.56
648.14	84.26
648.47	63.60
648.80	53.91
649.13	47.46
649.46	50.04
649.79	45.20
650.11	61.98
650.44	77.48
650.77	80.71
651.10	93.94
651.43	82.32
651.76	59.40
652.09	56.17
652.42	50.36
652.75	52.30
653.08	53.59
653.41	67.47
653.73	73.61
654.06	91.68
654.39	85.87
654.72	70.38
655.05	62.95
655.38	56.17
655.71	23.89
656.04	24.21
656.36	22.60
656.69	50.04
657.02	56.82
657.35	61.02
657.68	58.76
658.01	64.24
658.33	61.98
658.66	59.40
658.99	46.17
659.32	35.51
659.65	23.57
659.97	23.57
660.30	37.13
660.63	52.30
660.96	39.06
661.29	46.49
661.61	61.34
661.94	63.60
662.27	74.57
662.60	59.08
662.92	28.09
663.25	33.90
663.58	18.40
663.91	24.54
664.23	40.03
664.56	20.98
664.89	18.40
665.22	41.65
665.54	48.75
665.87	65.21
666.20	52.62
666.53	44.87
666.85	64.57
667.18	69.09
667.51	60.69
667.83	62.63
668.16	48.42
668.49	41.32
668.81	36.48
669.14	44.87
669.47	54.56
669.79	56.50
670.12	67.15
670.45	48.42
670.77	60.05
671.10	67.47
671.43	58.11
671.75	44.55
672.08	39.39
672.41	28.41
672.73	60.05
673.06	52.62
673.39	38.42
673.71	39.39
674.04	42.61
674.36	53.59
674.69	66.83
675.02	59.40
675.34	55.53
675.67	58.43
675.99	51.33
676.32	40.35
676.64	5.49
676.97	-10.01
677.30	-21.63
677.62	-20.02
677.95	-27.12
678.27	-24.54
678.60	-8.07
678.92	7.43
679.25	20.02
679.57	32.93
679.90	41.00
680.22	57.46
680.55	51.98
680.88	53.91
681.20	65.21
681.53	49.72
681.85	41.65
682.18	43.58
682.50	47.46
682.83	57.79
683.15	57.79
683.47	53.27
683.80	52.62
684.12	46.81
684.45	60.05
684.77	41.65
685.10	30.35
685.42	25.50
685.75	30.99
686.07	17.11
686.40	25.83
686.72	5.81
687.04	28.41
687.37	34.87
687.69	30.02
688.02	27.12
688.34	35.19
688.67	33.25
688.99	18.72
689.31	-2.58
689.64	3.55
689.96	2.91
690.28	-11.30
690.61	-1.29
690.93	0.00
691.26	21.95
691.58	16.46
691.90	16.79
692.23	25.18
692.55	34.87
692.87	17.43
693.20	27.12
693.52	18.72
693.84	27.12
694.17	19.37
694.49	13.24
694.81	15.82
695.14	20.66
695.46	21.63
695.78	32.93
696.11	27.76
696.43	27.76
696.75	50.36
697.08	72.31
697.40	82.32
697.72	81.68
698.04	71.02
698.37	86.20
698.69	82.97
699.01	60.69
699.33	47.13
699.66	52.30
699.98	44.87
700.30	36.16
700.62	33.57
700.95	34.22
701.27	46.17
701.59	38.09
701.91	29.38
702.24	13.88
702.56	38.74
702.88	21.95
703.20	16.79
703.52	5.17
703.85	-4.84
704.17	-9.36
704.49	2.26
704.81	-12.27
705.13	6.78
705.45	9.36
705.78	6.46
706.10	9.36
706.42	16.46
706.74	24.54
707.06	30.67
707.38	9.04
707.71	-0.97
708.03	7.75
708.35	15.17
708.67	20.34
708.99	10.33
709.31	8.39
709.63	10.98
709.95	27.76
710.27	20.66
710.60	18.40
710.92	11.94
711.24	12.59
711.56	-7.10
711.88	-4.52
712.20	6.78
712.52	0.97
712.84	6.13
713.16	-0.00
713.48	-5.17
713.80	4.52
714.12	4.84
714.44	-8.07
714.76	-10.65
715.08	1.29
715.40	25.18
715.72	20.02
716.04	37.13
716.36	35.83
716.68	43.91
717.00	72.31
717.32	60.37
717.64	45.20
717.96	54.24
718.28	40.35
718.60	47.46
718.92	26.15
719.24	3.55
719.56	-6.78
719.88	-15.50
720.20	-11.30
720.52	-0.65
720.84	4.84
721.16	15.82
721.48	12.27
721.80	19.69
722.12	6.46
722.44	11.30
722.76	9.36
723.08	0.65
723.40	1.29
723.72	10.01
724.03	21.63
724.35	34.22
724.67	25.83
724.99	15.17
725.31	8.39
725.63	2.26
725.95	11.94
726.27	6.78
726.58	6.13
726.90	2.91
727.22	1.94
727.54	2.58
727.86	14.85
728.18	-3.87
728.50	-18.08
728.81	-19.05
729.13	-14.85
729.45	-18.72
729.77	-8.72
730.09	-18.72
730.40	-9.04
730.72	-9.36
731.04	1.94
731.36	3.55
731.68	22.60
731.99	11.62
732.31	20.98
732.63	18.72
732.95	29.70
733.27	20.34
733.58	19.05
733.90	-10.65
734.22	-0.97
734.54	-13.56
734.85	-17.43
735.17	-20.98
735.49	-19.69
735.80	-17.76
736.12	3.87
736.44	17.76
736.76	10.98
737.07	6.78
737.39	0.65
737.71	-2.91
738.02	-15.50
738.34	-21.63
738.66	-41.65
738.97	-31.96
739.29	-10.65
739.61	-11.30
739.93	-10.33
740.24	14.20
740.56	25.50
740.87	28.09
741.19	28.41
741.51	4.20
741.82	4.52
742.14	14.85
742.46	4.84
742.77	1.94
743.09	10.65
743.41	11.62
743.72	21.31
744.04	31.96
744.35	16.79
744.67	24.21
744.99	1.61
745.30	2.26
745.62	-0.65
745.93	6.46
746.25	1.94
746.56	-3.87
746.88	-24.54
747.20	-5.81
747.51	-23.57
747.83	-32.61
748.14	-33.57
748.46	-27.12
748.77	-17.76
749.09	-16.79
749.40	-18.72
749.72	-4.20
750.03	12.59
750.35	3.55
750.66	-15.17
750.98	-20.98
751.29	-18.72
751.61	-14.20
751.92	-20.66
752.24	-37.13
752.55	-45.52
752.87	-36.80
753.18	-26.15
753.50	-17.11
753.81	-18.72
754.13	-20.02
754.44	-9.68
754.76	-3.87
755.07	9.68
755.38	11.94
755.70	-2.58
756.01	-13.88
756.33	4.20
756.64	10.65
756.95	16.79
757.27	3.55
757.58	6.78
757.90	21.63
758.21	38.09
758.52	30.99
758.84	15.17
759.15	20.34
759.47	42.29
759.78	35.19
760.09	40.03
760.41	35.19
760.72	33.25
761.03	47.13
761.35	40.35
761.66	18.72
761.97	17.76
762.29	13.88
762.60	-4.52
762.91	-9.68
763.23	-19.69
763.54	-29.38
763.85	-33.57
764.17	-30.35
764.48	-40.68
764.79	-25.50
765.10	-36.80
765.42	-36.48
765.73	-31.96
766.04	-5.81
766.36	-2.26
766.67	14.85
766.98	4.52
767.29	16.46
767.61	21.63
767.92	25.50
768.23	10.01
768.54	3.87
768.86	1.61
769.17	9.36
769.48	3.23
769.79	1.94
770.10	12.27
770.42	11.94
770.73	8.07
771.04	0.00
771.35	7.43
771.66	10.65
771.98	7.10
772.29	-18.08
772.60	-23.57
772.91	-16.14
773.22	-23.57
773.53	-42.61
773.85	-44.87
774.16	-47.78
774.47	-38.42
774.78	-43.91
775.09	-50.36
775.40	-37.77
775.71	-20.98
776.02	-8.39
776.34	15.50
776.65	23.89
776.96	35.83
777.27	43.91
777.58	33.25
777.89	33.25
778.20	23.57
778.51	14.53
778.82	14.20
779.13	4.20
779.44	-11.30
779.75	-7.10
780.06	-19.69
780.38	-27.44
780.69	-39.39
781.00	-43.26
781.31	-50.36
781.62	-36.48
781.93	-27.44
782.24	-21.95
782.55	-20.02
782.86	-20.66
783.17	-16.46
783.48	-7.10
783.79	12.27
784.10	16.46
784.41	20.66
784.72	28.09
785.03	31.31
785.34	40.35
785.65	46.81
785.96	20.98
786.27	-0.32
786.57	14.53
786.88	17.11
787.19	23.24
787.50	12.59
787.81	20.98
788.12	16.79
788.43	25.18
788.74	17.43
789.05	3.87
789.36	-4.20
789.67	7.75
789.98	-2.26
790.29	4.52
790.59	3.23
790.90	-10.65
791.21	-8.07
791.52	-7.10
791.83	-8.72
792.14	-8.72
792.45	-24.21
792.75	-20.34
793.06	-10.33
793.37	-5.49
793.68	1.61
793.99	-5.81
794.30	-8.72
794.60	17.43
794.91	5.17
795.22	4.20
795.53	15.82
795.84	5.17
796.15	13.56
796.45	10.33
796.76	-1.61
797.07	1.61
797.38	10.33
797.68	2.91
797.99	14.20
798.30	4.52
798.61	4.20
798.91	19.37
799.22	39.71
799.53	27.44
799.84	43.26
800.14	37.13
800.45	32.93
800.76	40.35
801.07	21.63
801.37	7.75
801.68	2.91
801.99	3.55
802.29	25.18
802.60	35.83
802.91	36.48
803.22	55.53
803.52	51.01
803.83	54.56
804.14	31.31
804.44	6.46
804.75	-5.81
805.06	-21.95
805.36	-27.76
805.67	-10.01
805.97	-6.78
806.28	-16.14
806.59	-1.94
806.89	16.14
807.20	33.90
807.51	19.37
807.81	10.98
808.12	20.66
808.42	54.56
808.73	61.98
809.04	43.26
809.34	48.42
809.65	58.43
809.95	51.98
810.26	47.46
810.56	23.89
810.87	28.41
811.18	41.32
811.48	25.83
811.79	35.83
812.09	48.10
812.40	37.13
812.70	40.68
813.01	10.33
813.31	-7.10
813.62	-3.23
813.92	-8.07
814.23	-26.47
814.53	-42.29
814.84	-42.61
815.14	-18.08
815.45	-3.23
815.75	18.40
816.06	18.08
816.36	22.28
816.67	40.35
816.97	39.39
817.28	21.63
817.58	19.69
817.89	-1.94
818.19	-9.04
818.49	-14.85
818.80	-10.01
819.10	-15.82
819.41	-19.69
819.71	-27.44
820.01	-28.73
820.32	-22.28
820.62	-10.01
820.93	-20.98
821.23	-9.68
821.53	-7.75
821.84	4.20
822.14	7.10
822.45	8.72
822.75	10.65
823.05	19.69
823.36	5.81
823.66	10.98
823.96	7.43
824.27	6.46
824.57	1.29
824.87	5.17
825.18	5.81
825.48	22.92
825.78	15.82
826.09	16.46
826.39	4.20
826.69	1.94
827.00	1.29
827.30	-1.29
827.60	-8.39
827.90	-9.36
828.21	-9.04
828.51	20.66
828.81	37.45
829.11	19.37
829.42	17.43
829.72	19.05
830.02	18.72
830.32	16.46
830.63	1.29
830.93	-25.18
831.23	-13.24
831.53	-15.17
831.84	-19.37
832.14	11.30
832.44	4.52
832.74	3.23
833.04	13.56
833.35	23.24
833.65	39.71
833.95	44.23
834.25	9.04
834.55	17.43
834.85	20.02
835.16	33.90
835.46	16.14
835.76	12.27
836.06	5.81
836.36	7.10
836.66	-0.65
836.96	-4.84
837.26	-28.41
837.57	-13.56
837.87	-22.60
838.17	-9.36
838.47	-4.20
838.77	3.23
839.07	2.91
839.37	8.07
839.67	12.27
839.97	17.76
840.27	10.65
840.57	24.21
840.88	22.28
841.18	17.43
841.48	26.15
841.78	26.15
842.08	30.35
842.38	16.79
842.68	14.20
842.98	16.46
843.28	22.92
843.58	18.40
843.88	7.75
844.18	-12.91
844.48	-4.84
844.78	-22.92
845.08	-29.38
845.38	-33.90
845.68	-38.42
845.98	-37.77
846.28	-23.89
846.58	-16.14
846.88	1.61
847.18	5.17
847.48	13.56
847.78	32.61
848.07	21.95
848.37	15.17
848.67	20.66
848.97	22.28
849.27	35.83
849.57	24.86
849.87	15.50
850.17	14.85
850.47	8.72
850.77	-6.13
851.07	-11.30
851.36	-41.00
851.66	-20.66
851.96	-26.80
852.26	-20.02
852.56	0.97
852.86	4.52
853.16	3.87
853.45	21.31
853.75	27.44
854.05	27.44
854.35	28.73
854.65	25.50
854.95	9.68
855.24	2.91
855.54	4.52
855.84	-24.21
856.14	-22.92
856.44	-32.28
856.73	-35.83
857.03	-10.65
857.33	2.91
857.63	-5.49
857.93	0.97
858.22	-8.07
858.52	-4.20
858.82	1.29
859.12	5.17
859.41	7.75
859.71	5.17
860.01	-1.61
860.30	1.94
860.60	-1.61
860.90	-2.58
861.20	-17.11
861.49	-21.31
861.79	-21.63
862.09	-15.17
862.38	-2.26
862.68	8.07
862.98	-2.58
863.27	17.43
863.57	10.01
863.87	14.20
864.16	34.22
864.46	27.12
864.76	22.92
865.05	22.60
865.35	16.79
865.65	23.24
865.94	22.92
866.24	4.52
866.54	15.82
866.83	10.65
867.13	-6.78
867.42	-23.24
867.72	-36.16
868.02	-37.77
868.31	-30.02
868.61	-45.20
868.90	-36.16
869.20	-11.94
869.49	-0.65
869.79	11.94
870.08	34.54
870.38	20.34
870.68	16.14
870.97	10.98
871.27	16.79
871.56	26.47
871.86	10.33
872.15	-14.20
872.45	-12.59
872.74	-4.84
873.04	10.33
873.33	13.88
873.63	-15.50
873.92	-8.07
874.22	4.20
874.51	14.53
874.81	11.94
875.10	5.17
875.40	2.91
875.69	7.43
875.98	-0.65
876.28	-3.55
876.57	-24.21
876.87	-34.87
877.16	-51.01
877.46	-75.22
877.75	-66.18
878.04	-56.50
878.34	-73.61
878.63	-56.17
878.93	-39.39
879.22	-34.22
879.51	-22.28
879.81	-5.81
880.10	-1.61
880.40	14.53
880.69	10.98
880.98	9.04
881.28	19.69
881.57	-3.87
881.86	-33.90
882.16	-50.36
882.45	-50.36
882.74	-57.79
883.04	-59.40
883.33	-70.38
883.62	-25.83
883.92	-4.52
884.21	-51.98
884.50	135.59
>>>>>End Processed Spectral Data<<<<<
