SpectraSuite Data File
++++++++++++++++++++++++++++++++++++
Date: Thu Mar 23 14:08:42 EDT 2017
User: Administrator
Dark Spectrum Present: Yes
Reference Spectrum Present: No
Number of Sampled Component Spectra: 1
Spectrometers: SB2+H01071
Integration Time (usec): 5000000 (SB2+H01071)
Spectra Averaged: 1 (SB2+H01071)
Boxcar Smoothing: 3 (SB2+H01071)
Correct for Electrical Dark: No (SB2+H01071)
Strobe/Lamp Enabled: No (SB2+H01071)
Correct for Detector Non-linearity: No (SB2+H01071)
Correct for Stray Light: No (SB2+H01071)
Number of Pixels in Processed Spectrum: 2048
>>>>>Begin Processed Spectral Data<<<<<
191.06	-6.78
191.43	-6.78
191.81	-6.78
192.19	5.81
192.56	-5.17
192.94	-16.79
193.31	-17.11
193.69	-20.66
194.07	-10.98
194.44	-23.57
194.82	-27.76
195.19	-22.60
195.57	-4.84
195.95	-3.55
196.32	-9.04
196.70	-7.75
197.07	2.26
197.45	4.20
197.83	14.20
198.20	-3.23
198.58	5.49
198.95	9.36
199.33	25.50
199.70	13.88
200.08	18.72
200.46	13.88
200.83	34.22
201.21	13.56
201.58	14.20
201.96	-3.55
202.33	-10.33
202.71	-14.85
203.09	-16.46
203.46	-25.50
203.84	-32.93
204.21	-29.70
204.59	-34.54
204.96	-21.95
205.34	-20.66
205.71	-9.36
206.09	-11.94
206.46	-9.04
206.84	-16.79
207.21	-5.49
207.59	-13.24
207.96	-26.80
208.34	-30.67
208.71	-22.60
209.09	-4.20
209.46	-6.13
209.84	-11.30
210.21	-5.17
210.59	0.00
210.96	-11.62
211.34	-18.40
211.71	-31.64
212.09	-35.83
212.46	-34.54
212.84	-26.80
213.21	-21.63
213.59	-11.62
213.96	-7.43
214.34	4.52
214.71	2.91
215.08	3.87
215.46	-19.37
215.83	-14.20
216.21	-20.98
216.58	-26.80
216.96	-26.15
217.33	-13.88
217.70	-14.20
218.08	0.32
218.45	-27.12
218.83	-13.56
219.20	-2.91
219.58	2.26
219.95	-8.72
220.32	-10.33
220.70	-16.14
221.07	18.40
221.45	-8.72
221.82	-10.01
222.19	-13.56
222.57	-14.85
222.94	-17.11
223.32	-6.78
223.69	-18.40
224.06	-5.17
224.44	8.07
224.81	9.04
225.18	21.31
225.56	32.61
225.93	25.50
226.31	-4.84
226.68	-2.58
227.05	-20.02
227.43	-43.26
227.80	-53.59
228.17	-49.07
228.55	-47.78
228.92	-6.78
229.29	6.46
229.67	4.84
230.04	36.16
230.41	46.81
230.79	30.02
231.16	46.17
231.53	36.80
231.91	29.70
232.28	26.47
232.65	9.36
233.03	13.56
233.40	28.73
233.77	31.31
234.15	28.41
234.52	31.31
234.89	44.87
235.26	52.94
235.64	47.78
236.01	47.13
236.38	41.00
236.76	38.74
237.13	38.74
237.50	33.25
237.87	26.47
238.25	21.95
238.62	-5.49
238.99	-7.43
239.36	-6.78
239.74	-11.94
240.11	-22.60
240.48	-17.76
240.85	-12.27
241.23	-4.52
241.60	-25.50
241.97	-14.53
242.34	-11.62
242.72	-9.36
243.09	-17.76
243.46	-32.61
243.83	-37.13
244.20	-26.47
244.58	-26.15
244.95	-25.83
245.32	-28.41
245.69	-35.83
246.07	-20.02
246.44	-4.84
246.81	-7.43
247.18	-14.53
247.55	-7.43
247.92	8.72
248.30	34.22
248.67	31.96
249.04	31.31
249.41	30.99
249.78	23.57
250.16	11.30
250.53	2.26
250.90	-2.91
251.27	-18.72
251.64	-20.98
252.01	-25.18
252.39	-16.14
252.76	-20.66
253.13	-29.70
253.50	-34.22
253.87	-17.11
254.24	-10.33
254.61	5.81
254.98	13.88
255.36	16.79
255.73	34.87
256.10	32.28
256.47	37.13
256.84	35.51
257.21	18.72
257.58	0.97
257.95	-7.43
258.33	-11.30
258.70	3.87
259.07	-1.61
259.44	-2.91
259.81	7.10
260.18	18.08
260.55	27.76
260.92	18.72
261.29	7.10
261.66	-3.23
262.03	0.00
262.40	-11.94
262.77	-16.14
263.15	-11.62
263.52	-9.36
263.89	8.72
264.26	22.60
264.63	14.20
265.00	25.50
265.37	38.09
265.74	34.22
266.11	41.00
266.48	19.37
266.85	5.81
267.22	11.30
267.59	8.72
267.96	1.29
268.33	1.61
268.70	4.84
269.07	6.46
269.44	24.86
269.81	35.19
270.18	37.45
270.55	39.06
270.92	33.25
271.29	15.50
271.66	1.29
272.03	-10.33
272.40	-16.79
272.77	-16.46
273.14	-35.19
273.51	-32.61
273.88	-30.99
274.25	-15.50
274.62	-14.53
274.99	-19.05
275.36	-15.50
275.73	-3.23
276.10	-13.24
276.47	-3.87
276.84	-18.72
277.21	-21.31
277.58	-44.23
277.94	-59.40
278.31	-69.09
278.68	-59.08
279.05	-62.31
279.42	-30.99
279.79	-37.13
280.16	-18.72
280.53	-7.10
280.90	-0.97
281.27	-0.97
281.64	-9.36
282.01	-21.63
282.37	-22.28
282.74	-19.37
283.11	-31.31
283.48	-40.35
283.85	-38.09
284.22	-24.21
284.59	-31.31
284.96	-17.43
285.33	-20.34
285.69	-2.91
286.06	-1.29
286.43	-4.84
286.80	-2.26
287.17	-1.29
287.54	2.91
287.91	19.69
288.27	18.08
288.64	25.18
289.01	20.34
289.38	10.01
289.75	8.72
290.12	10.33
290.48	-1.61
290.85	3.87
291.22	11.62
291.59	11.94
291.96	-5.49
292.33	-7.10
292.69	-20.98
293.06	-31.96
293.43	-24.86
293.80	-17.76
294.17	-19.69
294.53	-9.04
294.90	-2.26
295.27	-12.91
295.64	-8.39
296.01	-30.35
296.37	-35.51
296.74	-19.05
297.11	-1.61
297.48	12.91
297.84	33.57
298.21	26.80
298.58	27.76
298.95	22.92
299.31	26.47
299.68	20.34
300.05	11.94
300.42	-2.26
300.78	8.39
301.15	13.88
301.52	11.30
301.89	-6.13
302.25	7.10
302.62	-5.17
302.99	16.79
303.35	20.02
303.72	26.15
304.09	14.85
304.46	28.41
304.82	20.34
305.19	21.31
305.56	9.04
305.92	-1.94
306.29	-1.29
306.66	15.82
307.02	15.50
307.39	24.86
307.76	23.24
308.12	38.42
308.49	42.61
308.86	29.05
309.23	25.83
309.59	11.94
309.96	-7.10
310.32	10.65
310.69	-4.52
311.06	-10.01
311.42	-1.61
311.79	7.75
312.16	9.68
312.52	5.49
312.89	3.55
313.26	2.58
313.62	16.46
313.99	-6.46
314.35	-9.68
314.72	-0.65
315.09	19.69
315.45	10.01
315.82	6.78
316.19	-13.88
316.55	22.60
316.92	6.78
317.28	1.94
317.65	1.29
318.02	-20.34
318.38	-18.40
318.75	-9.68
319.11	-30.99
319.48	-36.80
319.84	-21.95
320.21	-34.87
320.58	-9.36
320.94	-13.24
321.31	-8.39
321.67	-4.84
322.04	17.11
322.40	7.75
322.77	5.49
323.13	-16.14
323.50	-20.02
323.86	-26.15
324.23	-35.51
324.60	-37.45
324.96	-37.45
325.33	-45.20
325.69	-27.76
326.06	-23.24
326.42	-15.17
326.79	-7.10
327.15	0.97
327.52	-4.52
327.88	9.04
328.25	15.50
328.61	23.57
328.98	20.66
329.34	-4.20
329.71	-25.50
330.07	-20.98
330.44	-21.95
330.80	-30.35
331.16	-31.64
331.53	-22.92
331.89	-4.52
332.26	5.81
332.62	3.55
332.99	-5.81
333.35	-9.36
333.72	-10.98
334.08	-13.88
334.45	-5.81
334.81	-9.68
335.17	-20.34
335.54	-21.31
335.90	-7.10
336.27	-12.27
336.63	-11.30
337.00	-4.20
337.36	-8.07
337.72	-0.65
338.09	16.79
338.45	19.37
338.82	24.86
339.18	19.05
339.54	20.02
339.91	20.02
340.27	23.89
340.63	6.13
341.00	-4.52
341.36	-10.98
341.73	-12.91
342.09	-17.43
342.45	-14.53
342.82	-10.65
343.18	3.87
343.54	-3.55
343.91	-9.04
344.27	-2.26
344.63	3.87
345.00	16.46
345.36	0.32
345.72	-23.57
346.09	-22.28
346.45	-14.53
346.81	-19.05
347.18	-17.76
347.54	-12.91
347.90	-4.84
348.27	5.17
348.63	2.91
348.99	11.62
349.36	17.76
349.72	5.81
350.08	-2.58
350.45	1.94
350.81	6.13
351.17	1.61
351.53	-19.05
351.90	-17.43
352.26	-20.66
352.62	-36.16
352.98	-31.31
353.35	-32.61
353.71	-28.41
354.07	-11.94
354.44	-10.33
354.80	-4.84
355.16	11.94
355.52	4.52
355.88	2.58
356.25	11.94
356.61	20.98
356.97	13.88
357.33	20.02
357.70	23.24
358.06	23.24
358.42	24.86
358.78	23.89
359.15	10.33
359.51	1.29
359.87	-12.91
360.23	-25.83
360.59	-27.44
360.95	-20.98
361.32	-36.48
361.68	-40.68
362.04	-43.26
362.40	-36.48
362.76	-41.65
363.13	-23.89
363.49	-21.31
363.85	-19.69
364.21	-15.17
364.57	11.62
364.93	11.30
365.30	20.98
365.66	6.46
366.02	12.27
366.38	31.31
366.74	22.28
367.10	14.53
367.46	21.63
367.83	14.20
368.19	13.56
368.55	8.72
368.91	10.01
369.27	17.76
369.63	6.46
369.99	11.94
370.35	17.11
370.71	18.40
371.08	8.72
371.44	-2.91
371.80	10.33
372.16	19.69
372.52	-1.29
372.88	-16.46
373.24	-21.31
373.60	-20.02
373.96	-19.37
374.32	-10.01
374.68	-19.05
375.04	-8.39
375.40	11.62
375.76	10.01
376.13	20.02
376.49	23.24
376.85	-4.84
377.21	1.94
377.57	7.75
377.93	0.65
378.29	2.58
378.65	-9.36
379.01	-17.11
379.37	-14.53
379.73	-15.50
380.09	-14.85
380.45	-16.14
380.81	-13.56
381.17	-15.50
381.53	-11.30
381.89	-9.68
382.25	-23.57
382.61	-21.63
382.97	-17.11
383.33	-5.17
383.69	-9.04
384.05	-20.34
384.41	-26.80
384.77	-17.43
385.13	-31.96
385.49	-24.54
385.85	-45.84
386.20	-32.28
386.56	-36.48
386.92	-30.02
387.28	-38.42
387.64	-27.76
388.00	-45.20
388.36	-20.02
388.72	-13.88
389.08	-8.72
389.44	-1.94
389.80	10.33
390.16	1.94
390.52	19.05
390.88	2.58
391.23	-11.62
391.59	-4.52
391.95	-17.76
392.31	-10.01
392.67	1.61
393.03	-9.68
393.39	-24.54
393.75	-18.72
394.11	-18.08
394.46	-7.10
394.82	-14.20
395.18	-19.69
395.54	-30.35
395.90	-14.20
396.26	-4.84
396.62	-4.52
396.97	-5.49
397.33	-20.34
397.69	-30.67
398.05	-32.61
398.41	-34.22
398.77	-48.10
399.12	-51.65
399.48	-35.83
399.84	-21.95
400.20	-14.53
400.56	9.68
400.91	20.02
401.27	23.57
401.63	30.35
401.99	18.72
402.35	22.60
402.70	26.15
403.06	11.94
403.42	4.20
403.78	4.52
404.14	-2.26
404.49	-15.50
404.85	-15.82
405.21	-22.92
405.57	-7.43
405.92	-12.91
406.28	-6.78
406.64	-1.61
407.00	4.52
407.35	-1.29
407.71	10.33
408.07	0.97
408.43	23.24
408.78	12.91
409.14	17.76
409.50	12.59
409.85	8.72
410.21	22.60
410.57	30.02
410.93	20.02
411.28	16.79
411.64	11.94
412.00	22.28
412.35	22.60
412.71	1.61
413.07	-3.55
413.42	-15.17
413.78	-12.27
414.14	-8.07
414.49	-21.63
414.85	-25.83
415.21	-33.25
415.56	-24.54
415.92	-15.50
416.28	-12.91
416.63	-6.46
416.99	29.38
417.35	55.85
417.70	48.75
418.06	32.28
418.42	19.37
418.77	33.90
419.13	19.37
419.48	-7.43
419.84	-26.80
420.20	-21.31
420.55	-17.76
420.91	-7.75
421.27	-18.40
421.62	-15.50
421.98	-17.43
422.33	-29.38
422.69	-38.74
423.05	-48.42
423.40	-39.71
423.76	-50.36
424.11	-37.13
424.47	-45.84
424.82	-38.74
425.18	-20.02
425.54	-13.24
425.89	-13.56
426.25	3.23
426.60	-11.94
426.96	-10.01
427.31	-3.87
427.67	1.29
428.02	-6.46
428.38	-18.08
428.73	-25.18
429.09	-7.75
429.44	2.58
429.80	5.17
430.15	8.39
430.51	22.92
430.86	22.92
431.22	31.31
431.57	11.30
431.93	18.40
432.28	18.08
432.64	5.49
432.99	10.65
433.35	10.65
433.70	-5.17
434.06	-7.43
434.41	-13.24
434.77	0.00
435.12	0.65
435.48	-3.87
435.83	-0.97
436.19	10.33
436.54	32.28
436.89	48.75
437.25	35.19
437.60	40.35
437.96	39.71
438.31	51.65
438.67	37.77
439.02	25.83
439.37	-11.62
439.73	-11.30
440.08	-33.90
440.44	-30.99
440.79	-41.97
441.15	-24.54
441.50	-25.83
441.85	11.62
442.21	21.31
442.56	35.19
442.91	25.50
443.27	10.65
443.62	-2.91
443.98	17.43
444.33	-4.52
444.68	-16.14
445.04	-5.17
445.39	0.00
445.74	15.50
446.10	17.11
446.45	-17.76
446.80	-27.12
447.16	-30.35
447.51	-34.87
447.86	-30.99
448.22	-50.04
448.57	-33.57
448.92	-12.91
449.28	-1.61
449.63	-7.10
449.98	-30.67
450.34	-27.44
450.69	-24.86
451.04	-33.25
451.40	-32.61
451.75	-26.80
452.10	-14.85
452.45	11.94
452.81	-5.49
453.16	0.32
453.51	-16.14
453.86	-24.21
454.22	-33.57
454.57	-31.96
454.92	-55.20
455.27	-57.46
455.63	-51.98
455.98	-26.15
456.33	-17.43
456.68	-13.88
457.04	-19.37
457.39	4.20
457.74	18.72
458.09	9.04
458.45	-9.68
458.80	-12.91
459.15	-2.91
459.50	6.78
459.85	-1.61
460.21	3.23
460.56	14.20
460.91	21.63
461.26	30.35
461.61	26.47
461.97	22.92
462.32	29.38
462.67	29.05
463.02	33.25
463.37	32.61
463.72	28.41
464.08	23.89
464.43	15.82
464.78	28.09
465.13	30.99
465.48	33.25
465.83	43.91
466.18	43.26
466.54	52.30
466.89	46.81
467.24	38.42
467.59	46.81
467.94	23.24
468.29	7.75
468.64	10.01
468.99	-4.52
469.34	-15.17
469.70	-24.86
470.05	-46.81
470.40	-35.19
470.75	-33.25
471.10	-42.29
471.45	-37.45
471.80	-7.75
472.15	-5.49
472.50	0.32
472.85	0.97
473.20	14.85
473.55	22.92
473.90	10.01
474.25	3.55
474.61	-17.43
474.96	-20.98
475.31	-5.81
475.66	5.49
476.01	-10.65
476.36	11.62
476.71	19.69
477.06	54.88
477.41	57.14
477.76	55.20
478.11	39.39
478.46	28.41
478.81	5.17
479.16	-11.62
479.51	-26.80
479.86	-13.24
480.21	-19.69
480.56	-41.00
480.91	-35.83
481.26	-24.54
481.61	-34.22
481.96	-23.24
482.31	-41.00
482.66	-45.52
483.00	-33.25
483.35	-9.36
483.70	2.91
484.05	19.37
484.40	8.72
484.75	7.43
485.10	5.49
485.45	5.49
485.80	-8.07
486.15	-6.13
486.50	-13.88
486.85	-21.63
487.20	-12.59
487.55	-5.49
487.89	-20.02
488.24	-22.60
488.59	-37.77
488.94	-31.31
489.29	-24.86
489.64	-15.50
489.99	-27.44
490.34	-16.14
490.68	-17.76
491.03	-19.37
491.38	-20.34
491.73	-13.24
492.08	-12.91
492.43	-21.95
492.78	-18.72
493.12	-8.72
493.47	0.32
493.82	-1.61
494.17	-15.17
494.52	-19.37
494.87	4.20
495.21	22.28
495.56	29.38
495.91	24.86
496.26	21.95
496.61	38.09
496.95	28.73
497.30	30.99
497.65	7.43
498.00	-1.94
498.35	-3.87
498.69	9.36
499.04	-6.13
499.39	-6.46
499.74	-28.73
500.08	-34.54
500.43	-31.96
500.78	-34.87
501.13	-37.77
501.48	-24.21
501.82	-28.73
502.17	-19.05
502.52	-5.49
502.86	-11.94
503.21	-10.01
503.56	-14.53
503.91	-18.08
504.25	-16.14
504.60	-10.65
504.95	1.61
505.30	12.27
505.64	10.65
505.99	14.53
506.34	36.80
506.68	40.03
507.03	37.45
507.38	19.05
507.72	8.07
508.07	2.58
508.42	3.87
508.76	-27.76
509.11	-7.10
509.46	-1.29
509.80	20.34
510.15	20.66
510.50	27.76
510.84	21.95
511.19	41.00
511.54	24.86
511.88	19.05
512.23	9.04
512.57	5.17
512.92	0.97
513.27	14.85
513.61	-3.55
513.96	-4.84
514.31	2.91
514.65	-6.78
515.00	2.26
515.34	-5.17
515.69	-34.22
516.03	-26.47
516.38	-36.80
516.73	-39.06
517.07	-35.51
517.42	-32.28
517.76	-10.01
518.11	3.23
518.45	2.91
518.80	11.30
519.15	35.19
519.49	39.71
519.84	38.42
520.18	27.44
520.53	18.72
520.87	23.57
521.22	15.17
521.56	-22.28
521.91	-22.60
522.25	-19.37
522.60	-0.65
522.94	13.88
523.29	13.88
523.63	15.17
523.98	41.97
524.32	26.47
524.67	28.09
525.01	15.17
525.36	24.54
525.70	9.36
526.05	20.02
526.39	7.43
526.74	18.72
527.08	16.46
527.43	19.05
527.77	-3.55
528.12	-1.29
528.46	11.30
528.80	17.76
529.15	25.18
529.49	34.22
529.84	38.09
530.18	66.50
530.53	83.29
530.87	82.00
531.21	83.29
531.56	67.79
531.90	63.60
532.25	43.91
532.59	29.05
532.93	26.15
533.28	21.95
533.62	17.11
533.97	25.18
534.31	22.60
534.65	34.22
535.00	40.35
535.34	39.39
535.68	41.65
536.03	30.67
536.37	32.28
536.71	20.98
537.06	37.13
537.40	35.83
537.74	25.18
538.09	11.94
538.43	8.72
538.77	18.72
539.12	26.80
539.46	14.85
539.80	15.82
540.15	36.16
540.49	30.35
540.83	29.05
541.18	34.54
541.52	49.39
541.86	57.46
542.20	44.87
542.55	41.65
542.89	60.69
543.23	82.32
543.58	79.42
543.92	77.16
544.26	62.95
544.60	77.48
544.95	71.35
545.29	66.83
545.63	70.05
545.97	56.50
546.32	47.13
546.66	59.40
547.00	50.68
547.34	65.21
547.68	66.50
548.03	67.15
548.37	75.87
548.71	79.09
549.05	84.26
549.39	85.87
549.74	71.35
550.08	64.57
550.42	53.91
550.76	64.89
551.10	83.94
551.45	86.84
551.79	76.51
552.13	80.71
552.47	90.39
552.81	81.03
553.15	73.61
553.50	61.02
553.84	45.52
554.18	44.87
554.52	40.35
554.86	43.58
555.20	63.92
555.54	59.08
555.88	47.78
556.23	57.14
556.57	92.01
556.91	102.34
557.25	99.43
557.59	92.01
557.93	89.42
558.27	78.13
558.61	69.41
558.95	61.66
559.29	64.89
559.64	52.30
559.98	40.68
560.32	59.72
560.66	72.96
561.00	90.72
561.34	74.90
561.68	60.37
562.02	66.50
562.36	68.76
562.70	59.40
563.04	61.66
563.38	51.98
563.72	46.17
564.06	52.30
564.40	53.59
564.74	61.66
565.08	56.82
565.42	66.18
565.76	73.28
566.10	86.52
566.44	80.06
566.78	84.58
567.12	80.71
567.46	71.02
567.80	64.89
568.14	58.76
568.48	59.08
568.82	62.31
569.16	50.36
569.50	53.91
569.84	71.67
570.18	111.38
570.52	112.67
570.86	107.18
571.20	116.54
571.54	100.08
571.88	110.09
572.22	109.12
572.55	80.39
572.89	73.93
573.23	71.35
573.57	74.25
573.91	100.08
574.25	103.63
574.59	96.20
574.93	72.31
575.27	64.24
575.61	65.21
575.94	52.62
576.28	56.17
576.62	61.34
576.96	63.92
577.30	72.31
577.64	85.23
577.98	93.30
578.32	99.76
578.65	84.58
578.99	68.44
579.33	51.98
579.67	54.88
580.01	34.22
580.35	13.88
580.68	0.32
581.02	11.94
581.36	24.21
581.70	41.97
582.04	29.05
582.37	49.07
582.71	66.83
583.05	74.90
583.39	72.64
583.73	51.33
584.06	50.36
584.40	70.70
584.74	81.35
585.08	83.29
585.41	82.00
585.75	63.92
586.09	64.89
586.43	53.91
586.76	45.84
587.10	30.67
587.44	32.28
587.78	26.15
588.11	42.29
588.45	41.65
588.79	42.61
589.13	31.64
589.46	21.63
589.80	6.46
590.14	2.58
590.47	13.88
590.81	16.79
591.15	19.69
591.48	23.24
591.82	42.29
592.16	53.27
592.50	74.90
592.83	57.14
593.17	51.33
593.51	59.08
593.84	65.86
594.18	68.12
594.51	71.02
594.85	54.56
595.19	64.24
595.52	74.25
595.86	79.42
596.20	81.03
596.53	83.29
596.87	60.69
597.21	67.79
597.54	60.69
597.88	57.46
598.21	56.82
598.55	45.84
598.89	32.28
599.22	41.65
599.56	38.42
599.89	37.13
600.23	33.90
600.57	35.19
600.90	40.03
601.24	42.94
601.57	50.04
601.91	49.07
602.24	61.66
602.58	54.24
602.91	52.62
603.25	61.02
603.58	68.76
603.92	53.27
604.26	60.69
604.59	48.75
604.93	51.98
605.26	36.80
605.60	21.95
605.93	13.56
606.27	27.76
606.60	37.13
606.94	39.06
607.27	37.13
607.61	31.96
607.94	50.04
608.28	43.91
608.61	44.23
608.95	33.57
609.28	38.42
609.61	50.68
609.95	74.90
610.28	62.63
610.62	61.34
610.95	58.11
611.29	50.04
611.62	34.87
611.96	23.57
612.29	2.26
612.62	-0.97
612.96	18.08
613.29	6.78
613.63	9.68
613.96	25.83
614.29	26.47
614.63	17.43
614.96	15.17
615.30	5.17
615.63	20.98
615.96	24.21
616.30	3.87
616.63	19.37
616.97	43.58
617.30	60.05
617.63	61.34
617.97	72.31
618.30	55.85
618.63	61.98
618.97	51.33
619.30	46.17
619.63	33.57
619.97	20.02
620.30	-11.62
620.63	4.52
620.97	15.50
621.30	8.39
621.63	1.29
621.97	0.65
622.30	11.62
622.63	18.72
622.96	8.39
623.30	5.49
623.63	19.69
623.96	6.46
624.30	7.75
624.63	7.10
624.96	-3.87
625.29	-3.87
625.63	-16.79
625.96	-23.24
626.29	-0.32
626.62	-4.84
626.96	-10.01
627.29	0.32
627.62	-15.50
627.95	10.33
628.28	15.17
628.62	11.94
628.95	6.13
629.28	19.05
629.61	30.99
629.95	39.39
630.28	26.80
630.61	22.60
630.94	14.85
631.27	23.57
631.60	17.11
631.94	17.11
632.27	36.16
632.60	33.57
632.93	39.06
633.26	39.71
633.59	48.75
633.93	50.04
634.26	36.48
634.59	27.12
634.92	25.18
635.25	17.76
635.58	18.72
635.91	2.91
636.24	9.68
636.58	26.47
636.91	22.60
637.24	18.72
637.57	21.31
637.90	20.34
638.23	27.44
638.56	35.83
638.89	33.25
639.22	48.10
639.55	57.46
639.88	54.56
640.22	61.34
640.55	57.79
640.88	41.65
641.21	38.42
641.54	12.59
641.87	6.46
642.20	16.79
642.53	14.20
642.86	24.86
643.19	14.53
643.52	15.17
643.85	30.67
644.18	21.31
644.51	15.82
644.84	5.17
645.17	9.36
645.50	13.56
645.83	-0.65
646.16	3.23
646.49	25.83
646.82	23.89
647.15	33.57
647.48	5.49
647.81	-1.29
648.14	4.52
648.47	-0.65
648.80	-16.46
649.13	-22.28
649.46	-35.19
649.79	-28.73
650.11	-13.88
650.44	-10.33
650.77	-14.53
651.10	-5.49
651.43	0.32
651.76	-9.04
652.09	-6.46
652.42	-13.88
652.75	-13.56
653.08	-3.87
653.41	5.81
653.73	16.79
654.06	30.99
654.39	30.99
654.72	26.47
655.05	29.38
655.38	20.34
655.71	8.39
656.04	6.78
656.36	8.72
656.69	28.41
657.02	28.73
657.35	28.73
657.68	41.97
658.01	28.73
658.33	17.76
658.66	17.76
658.99	4.20
659.32	6.78
659.65	3.55
659.97	-11.94
660.30	4.84
660.63	6.78
660.96	12.27
661.29	15.82
661.61	7.10
661.94	14.53
662.27	13.56
662.60	1.94
662.92	-4.52
663.25	-11.30
663.58	-13.88
663.91	6.13
664.23	16.79
664.56	15.82
664.89	23.89
665.22	37.13
665.54	43.58
665.87	46.17
666.20	39.71
666.53	20.66
666.85	29.70
667.18	29.70
667.51	11.94
667.83	9.04
668.16	-1.29
668.49	-12.59
668.81	-18.08
669.14	-4.20
669.47	-1.94
669.79	9.04
670.12	15.50
670.45	23.24
670.77	39.71
671.10	50.36
671.43	36.48
671.75	36.48
672.08	29.70
672.41	25.18
672.73	20.02
673.06	17.76
673.39	6.13
673.71	12.27
674.04	-0.65
674.36	6.46
674.69	0.32
675.02	2.26
675.34	-4.20
675.67	-1.94
675.99	-1.29
676.32	-7.10
676.64	-24.54
676.97	-10.65
677.30	-11.94
677.62	-20.34
677.95	-27.76
678.27	-45.84
678.60	-32.61
678.92	-28.73
679.25	-26.47
679.57	-12.91
679.90	-9.68
680.22	2.91
680.55	10.65
680.88	9.04
681.20	28.41
681.53	20.98
681.85	0.65
682.18	14.85
682.50	26.80
682.83	40.68
683.15	55.85
683.47	51.98
683.80	53.91
684.12	56.82
684.45	61.02
684.77	49.72
685.10	40.03
685.42	20.02
685.75	17.11
686.07	-7.75
686.40	-5.49
686.72	-25.18
687.04	-13.56
687.37	-13.24
687.69	-4.52
688.02	-10.01
688.34	1.94
688.67	0.32
688.99	-14.85
689.31	-28.41
689.64	-17.43
689.96	-22.60
690.28	-19.37
690.61	-14.53
690.93	-6.13
691.26	30.35
691.58	34.22
691.90	26.47
692.23	30.67
692.55	26.80
692.87	21.95
693.20	10.98
693.52	0.32
693.84	-8.07
694.17	-8.07
694.49	-10.65
694.81	-13.88
695.14	-13.88
695.46	-1.61
695.78	-6.13
696.11	2.91
696.43	-1.29
696.75	19.37
697.08	42.94
697.40	52.30
697.72	50.04
698.04	50.36
698.37	54.56
698.69	51.33
699.01	35.51
699.33	25.83
699.66	20.98
699.98	19.37
700.30	4.20
700.62	10.33
700.95	17.43
701.27	21.31
701.59	16.14
701.91	25.18
702.24	-2.58
702.56	12.59
702.88	-11.30
703.20	-13.56
703.52	-20.02
703.85	-29.05
704.17	-36.80
704.49	-1.61
704.81	0.97
705.13	24.54
705.45	25.50
705.78	20.34
706.10	17.11
706.42	24.21
706.74	25.18
707.06	18.08
707.38	-0.65
707.71	-10.65
708.03	2.26
708.35	10.01
708.67	7.43
708.99	-5.81
709.31	-4.84
709.63	-6.78
709.95	-0.65
710.27	-8.39
710.60	-7.10
710.92	-7.75
711.24	3.87
711.56	18.72
711.88	26.80
712.20	40.68
712.52	34.87
712.84	34.54
713.16	24.54
713.48	11.30
713.80	10.98
714.12	12.27
714.44	-1.29
714.76	-11.94
715.08	-15.82
715.40	1.61
715.72	10.33
716.04	-2.58
716.36	-5.81
716.68	-12.59
717.00	6.46
717.32	14.85
717.64	5.81
717.96	-5.49
718.28	-16.14
718.60	-11.62
718.92	-6.46
719.24	-7.43
719.56	-3.87
719.88	-13.56
720.20	0.97
720.52	17.11
720.84	14.20
721.16	13.88
721.48	11.62
721.80	-2.58
722.12	2.91
722.44	6.13
722.76	0.97
723.08	-3.23
723.40	-3.87
723.72	-1.29
724.03	19.05
724.35	10.33
724.67	-7.75
724.99	-12.59
725.31	-10.33
725.63	-11.94
725.95	2.26
726.27	3.55
726.58	17.76
726.90	16.46
727.22	16.46
727.54	1.94
727.86	9.36
728.18	-14.20
728.50	-58.43
728.81	-66.18
729.13	-51.33
729.45	-54.24
729.77	-39.39
730.09	-43.58
730.40	-33.90
730.72	-3.23
731.04	-3.87
731.36	-9.68
731.68	4.84
731.99	4.20
732.31	5.17
732.63	8.39
732.95	11.62
733.27	21.31
733.58	13.24
733.90	-4.20
734.22	-4.20
734.54	-14.53
734.85	-22.60
735.17	-24.86
735.49	-38.42
735.80	-39.06
736.12	-28.09
736.44	-19.37
736.76	-21.31
737.07	-31.64
737.39	-33.57
737.71	-28.41
738.02	-14.20
738.34	-2.91
738.66	-0.65
738.97	13.24
739.29	48.42
739.61	46.49
739.93	47.46
740.24	68.12
740.56	65.21
740.87	59.72
741.19	45.52
741.51	21.63
741.82	12.59
742.14	14.85
742.46	-22.28
742.77	-30.35
743.09	-33.25
743.41	-13.56
743.72	-6.13
744.04	10.33
744.35	13.56
744.67	30.02
744.99	20.34
745.30	12.59
745.62	8.39
745.93	6.46
746.25	14.20
746.56	-3.55
746.88	-15.17
747.20	-4.20
747.51	-10.33
747.83	-15.82
748.14	-22.60
748.46	-31.64
748.77	-13.88
749.09	-18.72
749.40	-20.02
749.72	-6.13
750.03	-12.27
750.35	-14.53
750.66	-19.05
750.98	-23.24
751.29	-10.33
751.61	-7.43
751.92	-5.49
752.24	-8.72
752.55	-18.72
752.87	-24.86
753.18	-34.22
753.50	-34.22
753.81	-35.19
754.13	-34.87
754.44	-13.24
754.76	7.75
755.07	25.50
755.38	44.55
755.70	56.17
756.01	35.19
756.33	34.22
756.64	18.72
756.95	3.23
757.27	-8.07
757.58	-12.59
757.90	-32.61
758.21	-26.80
758.52	-16.79
758.84	-16.14
759.15	-5.81
759.47	3.87
759.78	4.20
760.09	18.40
760.41	28.09
760.72	8.39
761.03	10.65
761.35	19.37
761.66	13.24
761.97	0.65
762.29	-12.27
762.60	-26.80
762.91	-25.18
763.23	-17.76
763.54	-46.81
763.85	-45.52
764.17	-35.19
764.48	-32.28
764.79	-20.66
765.10	-20.98
765.42	-19.37
765.73	1.29
766.04	15.82
766.36	13.56
766.67	9.68
766.98	23.89
767.29	31.96
767.61	17.76
767.92	20.98
768.23	-2.26
768.54	-4.52
768.86	10.98
769.17	13.24
769.48	6.13
769.79	16.14
770.10	17.76
770.42	18.72
770.73	18.72
771.04	7.10
771.35	-4.20
771.66	7.10
771.98	3.55
772.29	-24.21
772.60	-20.02
772.91	-16.79
773.22	-26.47
773.53	-31.96
773.85	-44.23
774.16	-42.94
774.47	-25.83
774.78	-19.69
775.09	-22.28
775.40	-7.43
775.71	-9.04
776.02	8.07
776.34	20.66
776.65	30.35
776.96	32.28
777.27	42.29
777.58	36.16
777.89	66.18
778.20	57.14
778.51	43.91
778.82	36.80
779.13	24.21
779.44	7.10
779.75	28.41
780.06	4.84
780.38	-5.49
780.69	-26.80
781.00	-26.47
781.31	-29.05
781.62	-9.68
781.93	-32.93
782.24	-47.13
782.55	-47.13
782.86	-41.65
783.17	-45.52
783.48	-45.20
783.79	-52.94
784.10	-35.19
784.41	-20.66
784.72	-16.79
785.03	-5.17
785.34	-0.65
785.65	4.20
785.96	-11.62
786.27	-39.71
786.57	-32.93
786.88	-32.61
787.19	-29.70
787.50	-26.15
787.81	-21.31
788.12	-13.24
788.43	2.91
788.74	5.49
789.05	14.85
789.36	26.47
789.67	17.43
789.98	11.94
790.29	22.60
790.59	27.12
790.90	18.72
791.21	11.30
791.52	-0.00
791.83	5.81
792.14	5.17
792.45	-17.43
792.75	-29.70
793.06	-20.34
793.37	-9.36
793.68	-8.72
793.99	-14.85
794.30	-2.91
794.60	10.65
794.91	6.78
795.22	-3.55
795.53	-4.52
795.84	-8.39
796.15	3.23
796.45	0.00
796.76	3.87
797.07	10.33
797.38	11.94
797.68	-3.55
797.99	-1.61
798.30	-11.62
798.61	-20.66
798.91	-24.54
799.22	-19.37
799.53	-29.70
799.84	-13.56
800.14	-24.21
800.45	-19.69
800.76	-19.05
801.07	-21.31
801.37	-26.47
801.68	-34.87
801.99	-35.19
802.29	-9.36
802.60	-3.23
802.91	-7.10
803.22	4.52
803.52	-10.01
803.83	2.58
804.14	-15.82
804.44	-20.98
804.75	-33.57
805.06	-23.24
805.36	-30.99
805.67	0.32
805.97	1.29
806.28	-6.46
806.59	-7.43
806.89	-1.94
807.20	-7.10
807.51	-10.01
807.81	-2.26
808.12	19.37
808.42	59.40
808.73	53.59
809.04	43.91
809.34	57.14
809.65	44.23
809.95	28.41
810.26	21.63
810.56	1.61
810.87	12.59
811.18	26.80
811.48	14.20
811.79	42.61
812.09	54.24
812.40	39.06
812.70	28.73
813.01	12.91
813.31	-7.43
813.62	-13.88
813.92	-14.20
814.23	-33.57
814.53	-50.68
814.84	-49.72
815.14	-34.54
815.45	-18.72
815.75	9.68
816.06	-7.10
816.36	-10.01
816.67	6.78
816.97	8.72
817.28	2.91
817.58	6.46
817.89	-15.50
818.19	-14.53
818.49	-16.14
818.80	-10.98
819.10	-13.24
819.41	-16.79
819.71	-14.20
820.01	-7.75
820.32	-5.17
820.62	4.84
820.93	-0.65
821.23	11.94
821.53	0.65
821.84	1.29
822.14	-0.97
822.45	8.07
822.75	12.27
823.05	16.46
823.36	-1.61
823.66	2.26
823.96	-15.17
824.27	-22.28
824.57	-22.60
824.87	-18.40
825.18	-16.14
825.48	10.65
825.78	21.95
826.09	29.38
826.39	11.30
826.69	1.94
827.00	4.20
827.30	12.27
827.60	-6.13
827.90	-10.65
828.21	6.46
828.51	32.61
828.81	44.23
829.11	30.35
829.42	18.08
829.72	15.50
830.02	4.84
830.32	-12.91
830.63	-35.83
830.93	-50.04
831.23	-57.46
831.53	-63.28
831.84	-58.43
832.14	-33.25
832.44	-27.12
832.74	3.23
833.04	4.52
833.35	12.59
833.65	25.83
833.95	25.50
834.25	10.98
834.55	15.82
834.85	-0.32
835.16	12.91
835.46	17.11
835.76	16.79
836.06	16.79
836.36	11.62
836.66	-10.65
836.96	-12.59
837.26	-21.63
837.57	-27.12
837.87	-24.86
838.17	-24.21
838.47	-17.11
838.77	7.10
839.07	19.05
839.37	0.32
839.67	7.43
839.97	14.85
840.27	8.07
840.57	2.58
840.88	-3.23
841.18	-12.91
841.48	15.17
841.78	20.02
842.08	12.59
842.38	12.27
842.68	10.33
842.98	20.02
843.28	24.86
843.58	9.68
843.88	3.55
844.18	-18.72
844.48	-8.07
844.78	-12.59
845.08	-24.86
845.38	-18.72
845.68	-14.20
845.98	-15.50
846.28	-4.84
846.58	-4.84
846.88	4.20
847.18	2.58
847.48	-4.20
847.78	6.46
848.07	3.23
848.37	18.40
848.67	21.31
848.97	28.09
849.27	39.06
849.57	42.61
849.87	38.42
850.17	30.35
850.47	14.53
850.77	8.72
851.07	6.46
851.36	-26.15
851.66	-25.50
851.96	-25.83
852.26	-17.43
852.56	-19.37
852.86	-3.55
853.16	-5.81
853.45	35.83
853.75	37.13
854.05	36.48
854.35	39.06
854.65	53.27
854.95	20.66
855.24	2.58
855.54	-2.26
855.84	-11.30
856.14	-9.68
856.44	-21.95
856.73	-30.35
857.03	-20.34
857.33	3.55
857.63	-12.59
857.93	-9.04
858.22	-20.34
858.52	-12.59
858.82	-9.36
859.12	5.17
859.41	2.58
859.71	2.26
860.01	0.97
860.30	-4.84
860.60	-7.43
860.90	-4.20
861.20	-31.31
861.49	-20.66
861.79	-28.09
862.09	-48.10
862.38	-37.77
862.68	-23.89
862.98	-30.67
863.27	0.65
863.57	-15.50
863.87	-5.49
864.16	37.45
864.46	24.54
864.76	24.86
865.05	28.09
865.35	23.24
865.65	30.99
865.94	25.83
866.24	0.97
866.54	22.60
866.83	8.39
867.13	-1.61
867.42	-15.50
867.72	-19.37
868.02	-15.82
868.31	-20.02
868.61	-33.90
868.90	-16.14
869.20	-13.88
869.49	-4.84
869.79	-6.46
870.08	10.65
870.38	9.68
870.68	12.27
870.97	-0.32
871.27	7.43
871.56	19.05
871.86	4.84
872.15	-8.39
872.45	-1.94
872.74	-13.88
873.04	-3.55
873.33	3.87
873.63	-15.50
873.92	-11.30
874.22	-16.14
874.51	-8.72
874.81	-6.78
875.10	-18.40
875.40	-19.69
875.69	-18.08
875.98	-29.70
876.28	-32.93
876.57	-56.82
876.87	-54.88
877.16	-61.02
877.46	-68.12
877.75	-66.18
878.04	-49.07
878.34	-47.78
878.63	-31.96
878.93	-28.09
879.22	-21.31
879.51	-15.50
879.81	-9.68
880.10	-10.33
880.40	-12.27
880.69	-25.50
880.98	-2.26
881.28	-8.07
881.57	-26.47
881.86	-47.13
882.16	-49.39
882.45	-22.28
882.74	-11.94
883.04	-30.67
883.33	-31.96
883.62	-14.85
883.92	-18.08
884.21	-61.02
884.50	38.42
>>>>>End Processed Spectral Data<<<<<
