SpectraSuite Data File
++++++++++++++++++++++++++++++++++++
Date: Thu Mar 23 14:07:36 EDT 2017
User: Administrator
Dark Spectrum Present: Yes
Reference Spectrum Present: No
Number of Sampled Component Spectra: 1
Spectrometers: SB2+H01071
Integration Time (usec): 5000000 (SB2+H01071)
Spectra Averaged: 1 (SB2+H01071)
Boxcar Smoothing: 3 (SB2+H01071)
Correct for Electrical Dark: No (SB2+H01071)
Strobe/Lamp Enabled: No (SB2+H01071)
Correct for Detector Non-linearity: No (SB2+H01071)
Correct for Stray Light: No (SB2+H01071)
Number of Pixels in Processed Spectrum: 2048
>>>>>Begin Processed Spectral Data<<<<<
191.06	22.60
191.43	22.60
191.81	22.60
192.19	9.36
192.56	0.00
192.94	-17.11
193.31	-18.40
193.69	-15.82
194.07	-12.91
194.44	-11.62
194.82	-17.11
195.19	-18.72
195.57	-2.58
195.95	-7.43
196.32	-17.11
196.70	-18.40
197.07	-16.79
197.45	-17.76
197.83	-6.13
198.20	-5.17
198.58	3.55
198.95	8.72
199.33	23.24
199.70	24.54
200.08	38.74
200.46	26.15
200.83	28.41
201.21	8.72
201.58	20.02
201.96	9.04
202.33	5.17
202.71	-9.04
203.09	-9.04
203.46	4.20
203.84	8.39
204.21	-10.98
204.59	-22.60
204.96	-18.08
205.34	-20.02
205.71	-9.68
206.09	-31.96
206.46	-27.44
206.84	-11.94
207.21	1.29
207.59	0.32
207.96	12.59
208.34	24.54
208.71	28.09
209.09	37.13
209.46	38.09
209.84	40.68
210.21	42.29
210.59	28.09
210.96	15.17
211.34	13.24
211.71	20.66
212.09	4.84
212.46	5.81
212.84	13.24
213.21	23.24
213.59	36.48
213.96	42.29
214.34	19.05
214.71	16.14
215.08	6.13
215.46	-16.79
215.83	-22.60
216.21	-34.87
216.58	-27.44
216.96	-19.69
217.33	-10.65
217.70	-7.43
218.08	2.58
218.45	-4.20
218.83	15.50
219.20	8.07
219.58	15.50
219.95	16.46
220.32	7.43
220.70	8.07
221.07	24.54
221.45	-0.32
221.82	-2.26
222.19	-3.87
222.57	-1.61
222.94	-1.29
223.32	1.29
223.69	-8.72
224.06	-5.81
224.44	7.75
224.81	16.46
225.18	32.28
225.56	36.16
225.93	31.31
226.31	25.50
226.68	32.93
227.05	16.46
227.43	-16.79
227.80	-43.26
228.17	-29.38
228.55	-25.83
228.92	-9.68
229.29	-10.65
229.67	-12.91
230.04	18.72
230.41	39.39
230.79	36.80
231.16	41.32
231.53	33.57
231.91	22.28
232.28	18.40
232.65	1.29
233.03	-16.79
233.40	-35.19
233.77	-30.35
234.15	-22.92
234.52	-7.10
234.89	2.26
235.26	13.24
235.64	20.02
236.01	32.93
236.38	37.77
236.76	34.54
237.13	40.35
237.50	33.57
237.87	36.48
238.25	32.61
238.62	30.35
238.99	16.46
239.36	9.36
239.74	-2.58
240.11	-14.85
240.48	-19.05
240.85	-11.94
241.23	-15.50
241.60	-8.07
241.97	-5.81
242.34	6.13
242.72	27.12
243.09	24.86
243.46	12.91
243.83	-2.26
244.20	-10.98
244.58	-14.20
244.95	-25.50
245.32	-40.35
245.69	-51.01
246.07	-43.26
246.44	-35.51
246.81	-38.09
247.18	-30.35
247.55	-32.28
247.92	-24.86
248.30	-6.46
248.67	-6.13
249.04	11.62
249.41	12.27
249.78	6.13
250.16	-3.55
250.53	0.32
250.90	-0.97
251.27	-19.37
251.64	-24.54
252.01	-20.34
252.39	-13.56
252.76	-5.81
253.13	-7.10
253.50	-27.44
253.87	-11.62
254.24	-19.05
254.61	-11.94
254.98	-10.98
255.36	-8.07
255.73	13.24
256.10	37.77
256.47	51.33
256.84	64.57
257.21	55.20
257.58	51.33
257.95	50.36
258.33	40.03
258.70	41.65
259.07	41.00
259.44	41.97
259.81	67.15
260.18	74.25
260.55	75.22
260.92	66.83
261.29	53.91
261.66	27.44
262.03	26.15
262.40	-0.65
262.77	4.20
263.15	-3.23
263.52	-3.87
263.89	12.91
264.26	33.25
264.63	26.15
265.00	33.25
265.37	21.31
265.74	19.69
266.11	27.76
266.48	20.02
266.85	6.78
267.22	11.94
267.59	1.29
267.96	3.87
268.33	23.24
268.70	25.50
269.07	20.34
269.44	25.83
269.81	30.67
270.18	44.23
270.55	33.90
270.92	21.63
271.29	18.40
271.66	5.81
272.03	7.43
272.40	0.00
272.77	-2.58
273.14	-14.85
273.51	-23.57
273.88	-37.13
274.25	-28.73
274.62	-35.51
274.99	-40.03
275.36	-41.32
275.73	-18.72
276.10	-18.08
276.47	-13.88
276.84	-36.16
277.21	-29.38
277.58	-54.24
277.94	-65.21
278.31	-84.90
278.68	-83.61
279.05	-86.52
279.42	-58.11
279.79	-61.02
280.16	-42.94
280.53	-24.54
280.90	-22.28
281.27	-9.04
281.64	-10.01
282.01	-23.57
282.37	-18.40
282.74	-5.81
283.11	-13.88
283.48	-6.13
283.85	-10.65
284.22	-8.07
284.59	3.87
284.96	1.94
285.33	-6.13
285.69	-6.46
286.06	-2.58
286.43	-16.14
286.80	-15.50
287.17	-20.98
287.54	-26.47
287.91	-26.15
288.27	-25.50
288.64	-27.76
289.01	-20.98
289.38	-6.78
289.75	-10.33
290.12	-4.52
290.48	2.91
290.85	9.36
291.22	10.01
291.59	14.20
291.96	-1.61
292.33	6.46
292.69	10.01
293.06	6.78
293.43	6.46
293.80	26.47
294.17	29.70
294.53	15.50
294.90	14.85
295.27	6.78
295.64	-12.27
296.01	-20.98
296.37	-40.03
296.74	-46.49
297.11	-17.76
297.48	-6.13
297.84	-15.82
298.21	-0.00
298.58	16.14
298.95	27.12
299.31	28.41
299.68	15.17
300.05	15.50
300.42	28.41
300.78	21.95
301.15	12.59
301.52	-5.81
301.89	-11.94
302.25	3.87
302.62	-14.85
302.99	-2.58
303.35	6.13
303.72	15.50
304.09	27.12
304.46	36.16
304.82	30.67
305.19	48.10
305.56	37.13
305.92	28.73
306.29	19.37
306.66	22.92
307.02	23.24
307.39	18.08
307.76	15.50
308.12	25.50
308.49	32.61
308.86	20.34
309.23	13.88
309.59	3.23
309.96	-10.65
310.32	-13.56
310.69	-22.92
311.06	-17.76
311.42	-14.53
311.79	-6.46
312.16	-8.39
312.52	-2.26
312.89	1.61
313.26	-1.61
313.62	-2.26
313.99	-5.17
314.35	-10.65
314.72	-4.52
315.09	13.56
315.45	14.20
315.82	-0.32
316.19	2.91
316.55	20.66
316.92	39.39
317.28	31.96
317.65	36.16
318.02	13.24
318.38	30.02
318.75	18.40
319.11	5.17
319.48	-23.57
319.84	-9.36
320.21	-18.40
320.58	-10.65
320.94	-16.79
321.31	-22.28
321.67	-19.37
322.04	-6.46
322.40	-10.65
322.77	-26.15
323.13	-26.15
323.50	-41.00
323.86	-40.35
324.23	-48.75
324.60	-61.34
324.96	-54.88
325.33	-63.92
325.69	-63.28
326.06	-40.35
326.42	-29.70
326.79	-22.92
327.15	-7.75
327.52	-22.60
327.88	6.46
328.25	2.58
328.61	3.23
328.98	2.26
329.34	-16.46
329.71	-25.83
330.07	-23.24
330.44	-32.28
330.80	-29.05
331.16	-23.89
331.53	-4.84
331.89	2.91
332.26	8.07
332.62	35.19
332.99	29.05
333.35	23.89
333.72	6.13
334.08	-15.82
334.45	-2.26
334.81	1.61
335.17	-27.12
335.54	-28.73
335.90	-17.76
336.27	-8.07
336.63	-12.91
337.00	-0.65
337.36	-9.04
337.72	8.39
338.09	15.50
338.45	27.12
338.82	24.21
339.18	39.71
339.54	34.22
339.91	36.48
340.27	20.02
340.63	5.49
341.00	1.94
341.36	-6.46
341.73	-10.65
342.09	-25.50
342.45	-32.93
342.82	-27.12
343.18	-20.34
343.54	-22.92
343.91	-20.98
344.27	-14.20
344.63	-9.04
345.00	6.78
345.36	-4.84
345.72	-13.56
346.09	-11.30
346.45	15.50
346.81	-5.81
347.18	11.62
347.54	14.85
347.90	25.18
348.27	30.67
348.63	21.63
348.99	17.43
349.36	39.39
349.72	32.61
350.08	29.05
350.45	25.18
350.81	29.70
351.17	12.59
351.53	-2.26
351.90	-17.76
352.26	-42.94
352.62	-62.31
352.98	-53.27
353.35	-48.75
353.71	-33.90
354.07	-29.05
354.44	-26.47
354.80	-9.36
355.16	1.61
355.52	-4.20
355.88	-4.84
356.25	6.78
356.61	24.21
356.97	25.18
357.33	38.09
357.70	48.10
358.06	55.85
358.42	50.04
358.78	42.29
359.15	26.80
359.51	17.76
359.87	-3.23
360.23	-18.72
360.59	-15.17
360.95	-6.13
361.32	-8.07
361.68	-28.09
362.04	-25.50
362.40	-28.73
362.76	-26.15
363.13	-41.97
363.49	-42.61
363.85	-44.55
364.21	-39.39
364.57	-31.31
364.93	-22.60
365.30	-11.30
365.66	-7.10
366.02	9.68
366.38	8.39
366.74	16.14
367.10	24.54
367.46	20.66
367.83	1.94
368.19	3.55
368.55	-12.27
368.91	-4.20
369.27	-17.43
369.63	-24.21
369.99	-4.20
370.35	-1.94
370.71	8.72
371.08	-3.55
371.44	-6.46
371.80	21.63
372.16	7.10
372.52	-18.40
372.88	-16.14
373.24	-26.15
373.60	-20.66
373.96	-21.63
374.32	-33.57
374.68	-17.76
375.04	-8.39
375.40	1.94
375.76	-1.94
376.13	3.55
376.49	4.20
376.85	1.61
377.21	-3.23
377.57	3.23
377.93	-2.91
378.29	-9.04
378.65	-30.35
379.01	-36.80
379.37	-43.26
379.73	-53.27
380.09	-53.27
380.45	-54.24
380.81	-40.68
381.17	-22.28
381.53	-29.05
381.89	-38.42
382.25	-33.57
382.61	-21.31
382.97	-12.27
383.33	-2.58
383.69	-6.78
384.05	3.87
384.41	14.53
384.77	22.92
385.13	9.36
385.49	5.17
385.85	2.58
386.20	18.08
386.56	17.11
386.92	16.79
387.28	5.49
387.64	1.29
388.00	-8.07
388.36	-16.46
388.72	-25.18
389.08	-32.93
389.44	-20.02
389.80	-9.68
390.16	-5.17
390.52	12.27
390.88	21.95
391.23	18.08
391.59	26.47
391.95	20.02
392.31	20.98
392.67	19.05
393.03	0.65
393.39	-20.98
393.75	-20.34
394.11	-13.88
394.46	-16.14
394.82	-13.56
395.18	-1.94
395.54	4.20
395.90	9.68
396.26	14.20
396.62	0.65
396.97	6.13
397.33	-3.23
397.69	-22.60
398.05	-38.74
398.41	-42.94
398.77	-41.32
399.12	-39.06
399.48	-41.32
399.84	-40.03
400.20	-36.16
400.56	-13.88
400.91	2.26
401.27	-3.23
401.63	0.32
401.99	-6.46
402.35	11.30
402.70	28.41
403.06	29.05
403.42	22.28
403.78	20.34
404.14	21.95
404.49	12.91
404.85	0.00
405.21	-16.79
405.57	-4.84
405.92	-6.13
406.28	-7.43
406.64	-16.79
407.00	-1.61
407.35	-17.11
407.71	-15.50
408.07	-20.02
408.43	-11.62
408.78	-10.98
409.14	-3.23
409.50	-5.17
409.85	10.01
410.21	16.79
410.57	9.68
410.93	6.13
411.28	-1.29
411.64	4.52
412.00	18.08
412.35	14.85
412.71	10.33
413.07	15.82
413.42	11.30
413.78	27.12
414.14	17.11
414.49	11.94
414.85	1.94
415.21	-4.84
415.56	6.13
415.92	14.85
416.28	12.59
416.63	42.61
416.99	57.14
417.35	84.90
417.70	78.45
418.06	64.57
418.42	52.30
418.77	69.73
419.13	51.33
419.48	22.28
419.84	-0.00
420.20	3.87
420.55	4.20
420.91	8.72
421.27	-20.34
421.62	-41.65
421.98	-33.25
422.33	-38.74
422.69	-43.58
423.05	-57.79
423.40	-40.35
423.76	-31.64
424.11	-3.87
424.47	-10.01
424.82	-2.58
425.18	19.37
425.54	17.76
425.89	12.91
426.25	10.98
426.60	-10.01
426.96	-17.76
427.31	-25.50
427.67	-33.57
428.02	-32.93
428.38	-44.23
428.73	-42.61
429.09	-25.18
429.44	2.26
429.80	23.24
430.15	39.06
430.51	63.92
430.86	64.89
431.22	60.69
431.57	36.48
431.93	29.70
432.28	21.31
432.64	0.97
432.99	-11.30
433.35	-28.09
433.70	-36.16
434.06	-34.87
434.41	-41.00
434.77	-38.74
435.12	-32.93
435.48	-45.20
435.83	-19.05
436.19	1.61
436.54	24.54
436.89	20.34
437.25	13.24
437.60	10.01
437.96	10.98
438.31	3.87
438.67	-19.37
439.02	-32.28
439.37	-39.39
439.73	-34.22
440.08	-43.91
440.44	-55.53
440.79	-44.23
441.15	-22.28
441.50	-30.02
441.85	-13.24
442.21	-7.43
442.56	-6.13
442.91	13.24
443.27	-7.43
443.62	-20.02
443.98	-1.61
444.33	-14.85
444.68	-18.08
445.04	-6.13
445.39	-8.72
445.74	-0.97
446.10	9.36
446.45	2.58
446.80	2.58
447.16	-6.13
447.51	-10.98
447.86	-3.23
448.22	-18.72
448.57	-20.34
448.92	-18.08
449.28	-10.01
449.63	-3.55
449.98	-12.27
450.34	-6.78
450.69	-4.52
451.04	3.87
451.40	12.91
451.75	5.49
452.10	3.55
452.45	15.50
452.81	-1.61
453.16	0.97
453.51	-27.12
453.86	-36.48
454.22	-34.87
454.57	-41.65
454.92	-52.94
455.27	-68.44
455.63	-63.92
455.98	-44.87
456.33	-52.62
456.68	-52.62
457.04	-52.30
457.39	-51.65
457.74	-24.54
458.09	-40.35
458.45	-44.23
458.80	-28.73
459.15	-22.92
459.50	-8.39
459.85	1.61
460.21	-16.79
460.56	-0.00
460.91	-15.50
461.26	-9.68
461.61	-18.08
461.97	-19.05
462.32	-13.88
462.67	0.65
463.02	8.39
463.37	11.94
463.72	2.58
464.08	13.56
464.43	0.00
464.78	4.52
465.13	7.43
465.48	-19.05
465.83	-4.20
466.18	0.65
466.54	1.29
466.89	3.55
467.24	1.29
467.59	18.72
467.94	28.09
468.29	28.09
468.64	29.70
468.99	23.57
469.34	14.53
469.70	6.13
470.05	-28.41
470.40	-13.24
470.75	-6.78
471.10	-21.63
471.45	-6.78
471.80	16.79
472.15	22.60
472.50	41.97
472.85	25.83
473.20	11.62
473.55	24.54
473.90	8.39
474.25	-6.46
474.61	-31.31
474.96	-33.57
475.31	-21.95
475.66	-14.85
476.01	-20.98
476.36	-18.08
476.71	-1.29
477.06	10.01
477.41	1.61
477.76	8.72
478.11	11.30
478.46	10.33
478.81	3.23
479.16	0.97
479.51	7.75
479.86	24.86
480.21	28.09
480.56	25.18
480.91	26.15
481.26	32.61
481.61	21.63
481.96	40.03
482.31	21.95
482.66	22.92
483.00	18.72
483.35	24.86
483.70	30.02
484.05	43.91
484.40	30.02
484.75	32.28
485.10	12.59
485.45	4.20
485.80	-4.20
486.15	6.13
486.50	-7.43
486.85	-13.56
487.20	-2.91
487.55	1.29
487.89	7.75
488.24	8.39
488.59	-14.85
488.94	-5.17
489.29	0.65
489.64	9.68
489.99	-3.55
490.34	-1.94
490.68	-7.43
491.03	1.29
491.38	-6.46
491.73	4.84
492.08	6.13
492.43	22.92
492.78	23.24
493.12	31.96
493.47	36.16
493.82	37.13
494.17	14.53
494.52	-0.32
494.87	7.10
495.21	22.92
495.56	35.83
495.91	34.54
496.26	37.13
496.61	51.65
496.95	52.62
497.30	38.42
497.65	23.89
498.00	18.72
498.35	22.28
498.69	20.02
499.04	6.78
499.39	16.79
499.74	15.82
500.08	15.17
500.43	-0.97
500.78	-13.24
501.13	-10.33
501.48	-3.55
501.82	-10.65
502.17	-7.43
502.52	-4.20
502.86	2.91
503.21	19.05
503.56	15.50
503.91	21.63
504.25	5.17
504.60	16.79
504.95	26.47
505.30	28.41
505.64	20.66
505.99	26.80
506.34	39.06
506.68	64.89
507.03	58.76
507.38	61.66
507.72	59.08
508.07	65.54
508.42	71.99
508.76	60.37
509.11	51.65
509.46	53.91
509.80	46.81
510.15	38.09
510.50	30.02
510.84	13.56
511.19	18.40
511.54	30.35
511.88	35.83
512.23	38.42
512.57	45.84
512.92	48.10
513.27	68.76
513.61	62.95
513.96	55.85
514.31	57.14
514.65	50.36
515.00	62.63
515.34	60.05
515.69	42.61
516.03	57.14
516.38	60.05
516.73	64.57
517.07	70.38
517.42	71.67
517.76	93.30
518.11	94.91
518.45	92.65
518.80	87.16
519.15	118.48
519.49	139.79
519.84	147.21
520.18	139.14
520.53	148.18
520.87	150.12
521.22	154.64
521.56	129.46
521.91	123.97
522.25	141.40
522.60	148.18
522.94	156.57
523.29	155.61
523.63	174.98
523.98	200.48
524.32	197.90
524.67	185.31
525.01	197.57
525.36	207.90
525.70	218.88
526.05	214.04
526.39	192.73
526.74	209.20
527.08	210.81
527.43	213.39
527.77	220.49
528.12	233.09
528.46	246.32
528.80	263.75
529.15	259.23
529.49	270.53
529.84	281.19
530.18	284.74
530.53	280.86
530.87	277.64
531.21	286.03
531.56	302.49
531.90	308.95
532.25	290.87
532.59	298.30
532.93	298.62
533.28	308.31
533.62	299.27
533.97	304.75
534.31	311.21
534.65	318.31
535.00	315.41
535.34	332.19
535.68	335.42
536.03	339.62
536.37	335.42
536.71	324.12
537.06	343.49
537.40	361.57
537.74	344.14
538.09	350.60
538.43	348.34
538.77	344.14
539.12	366.09
539.46	364.80
539.80	351.24
540.15	380.30
540.49	379.97
540.83	386.75
541.18	443.25
541.52	452.93
541.86	431.30
542.20	435.82
542.55	439.70
542.89	455.52
543.23	478.44
543.58	453.58
543.92	454.87
544.26	480.70
544.60	506.20
544.95	491.03
545.29	478.11
545.63	480.37
545.97	459.07
546.32	458.75
546.66	463.59
547.00	436.47
547.34	460.04
547.68	476.82
548.03	467.46
548.37	474.24
548.71	469.08
549.05	486.19
549.39	481.34
549.74	480.70
550.08	476.50
550.42	473.27
550.76	477.47
551.10	477.47
551.45	476.50
551.79	493.29
552.13	484.89
552.47	463.59
552.81	467.78
553.15	471.66
553.50	468.43
553.84	456.81
554.18	455.19
554.52	458.10
554.86	488.45
555.20	492.97
555.54	490.06
555.88	489.09
556.23	496.84
556.57	512.34
556.91	510.08
557.25	516.53
557.59	515.56
557.93	514.27
558.27	517.50
558.61	518.47
558.95	515.56
559.29	534.29
559.64	508.78
559.98	496.19
560.32	502.33
560.66	512.98
561.00	500.71
561.34	497.81
561.68	473.60
562.02	469.40
562.36	478.76
562.70	478.44
563.04	465.52
563.38	466.82
563.72	460.04
564.06	460.04
564.40	460.68
564.74	457.45
565.08	446.80
565.42	460.68
565.76	466.82
566.10	474.24
566.44	466.17
566.78	464.88
567.12	459.39
567.46	472.95
567.80	456.81
568.14	454.23
568.48	447.77
568.82	473.60
569.16	489.09
569.50	490.71
569.84	476.18
570.18	535.58
570.52	532.67
570.86	533.32
571.20	526.22
571.54	497.81
571.88	512.01
572.22	522.67
572.55	467.14
572.89	458.10
573.23	437.44
573.57	423.88
573.91	451.64
574.25	438.08
574.59	432.92
574.93	426.46
575.27	426.46
575.61	442.28
575.94	436.47
576.28	427.11
576.62	435.82
576.96	427.75
577.30	432.27
577.64	447.12
577.98	439.38
578.32	443.89
578.65	422.26
578.99	409.67
579.33	396.76
579.67	393.53
580.01	385.14
580.35	377.07
580.68	379.33
581.02	389.66
581.36	400.64
581.70	403.22
582.04	391.92
582.37	387.08
582.71	397.08
583.05	390.30
583.39	389.34
583.73	385.14
584.06	391.27
584.40	415.81
584.74	420.97
585.08	432.27
585.41	445.19
585.75	440.99
586.09	427.75
586.43	405.15
586.76	376.10
587.10	358.02
587.44	352.53
587.78	322.83
588.11	327.35
588.45	320.25
588.79	324.77
589.13	323.16
589.46	310.89
589.80	296.68
590.14	309.92
590.47	310.24
590.81	299.59
591.15	312.82
591.48	317.34
591.82	341.88
592.16	353.50
592.50	347.04
592.83	340.59
593.17	364.48
593.51	355.12
593.84	363.19
594.18	373.19
594.51	363.19
594.85	366.74
595.19	363.19
595.52	364.80
595.86	380.62
596.20	369.32
596.53	356.08
596.87	352.53
597.21	355.44
597.54	367.38
597.88	343.82
598.21	345.75
598.55	344.14
598.89	332.52
599.22	322.83
599.56	301.20
599.89	280.22
600.23	292.81
600.57	289.58
600.90	293.78
601.24	296.04
601.57	291.19
601.91	293.13
602.24	294.10
602.58	282.80
602.91	273.76
603.25	278.93
603.58	272.47
603.92	286.68
604.26	303.46
604.59	311.53
604.93	327.67
605.26	315.08
605.60	295.07
605.93	303.14
606.27	305.72
606.60	307.98
606.94	302.49
607.27	284.42
607.61	284.09
607.94	297.65
608.28	283.77
608.61	262.46
608.95	250.84
609.28	256.33
609.61	262.79
609.95	264.72
610.28	243.09
610.62	241.16
610.95	248.58
611.29	235.99
611.62	213.07
611.96	211.13
612.29	206.61
612.62	215.33
612.96	217.59
613.29	207.58
613.63	209.84
613.96	234.05
614.29	228.24
614.63	222.43
614.96	225.98
615.30	225.01
615.63	235.02
615.96	248.26
616.30	213.72
616.63	207.90
616.97	216.94
617.30	210.49
617.63	202.74
617.97	208.87
618.30	181.75
618.63	203.06
618.97	204.68
619.30	198.54
619.63	184.66
619.97	188.21
620.30	164.97
620.63	182.40
620.97	175.62
621.30	173.04
621.63	153.67
621.97	150.44
622.30	158.51
622.63	169.16
622.96	161.74
623.30	175.30
623.63	180.46
623.96	176.59
624.30	181.43
624.63	177.56
624.96	158.83
625.29	148.83
625.63	130.42
625.96	124.94
626.29	153.02
626.62	143.66
626.96	146.89
627.29	153.02
627.62	154.31
627.95	170.13
628.28	174.65
628.62	167.55
628.95	174.98
629.28	165.94
629.61	188.21
629.95	194.99
630.28	183.05
630.61	175.30
630.94	158.19
631.27	164.00
631.60	157.54
631.94	141.08
632.27	138.17
632.60	141.40
632.93	141.72
633.26	160.45
633.59	158.51
633.93	163.68
634.26	162.06
634.59	150.76
634.92	156.25
635.25	142.05
635.58	134.94
635.91	131.07
636.24	131.39
636.58	134.94
636.91	137.53
637.24	113.64
637.57	132.36
637.90	124.61
638.23	107.83
638.56	105.89
638.89	99.76
639.22	105.24
639.55	115.90
639.88	105.57
640.22	103.63
640.55	110.73
640.88	101.37
641.21	115.90
641.54	105.24
641.87	98.14
642.20	104.92
642.53	117.19
642.86	137.85
643.19	128.16
643.52	123.97
643.85	136.56
644.18	138.82
644.51	140.11
644.84	129.78
645.17	125.26
645.50	126.23
645.83	98.46
646.16	97.82
646.49	100.40
646.82	91.04
647.15	88.13
647.48	58.43
647.81	65.21
648.14	71.02
648.47	70.70
648.80	65.54
649.13	65.21
649.46	55.53
649.79	63.92
650.11	82.65
650.44	91.68
650.77	83.29
651.10	91.04
651.43	84.26
651.76	86.20
652.09	84.90
652.42	60.69
652.75	59.72
653.08	70.38
653.41	76.19
653.73	80.71
654.06	93.30
654.39	99.11
654.72	90.39
655.05	91.68
655.38	75.54
655.71	48.42
656.04	55.85
656.36	44.87
656.69	54.56
657.02	60.69
657.35	46.17
657.68	65.86
658.01	76.51
658.33	67.15
658.66	61.02
658.99	55.53
659.32	52.62
659.65	50.36
659.97	25.50
660.30	38.09
660.63	48.10
660.96	51.65
661.29	51.33
661.61	44.23
661.94	68.44
662.27	76.51
662.60	52.30
662.92	40.35
663.25	41.32
663.58	36.48
663.91	45.20
664.23	58.76
664.56	51.65
664.89	63.28
665.22	67.15
665.54	78.77
665.87	85.55
666.20	77.80
666.53	56.82
666.85	77.16
667.18	77.16
667.51	77.80
667.83	77.48
668.16	65.54
668.49	80.39
668.81	60.37
669.14	49.39
669.47	58.43
669.79	59.72
670.12	51.01
670.45	38.42
670.77	45.84
671.10	54.56
671.43	53.91
671.75	48.42
672.08	48.75
672.41	46.81
672.73	55.85
673.06	48.10
673.39	44.23
673.71	56.50
674.04	48.75
674.36	51.98
674.69	60.69
675.02	69.09
675.34	55.53
675.67	61.66
675.99	53.27
676.32	45.84
676.64	23.57
676.97	22.28
677.30	33.25
677.62	43.58
677.95	34.54
678.27	17.43
678.60	27.44
678.92	35.51
679.25	36.16
679.57	27.76
679.90	29.05
680.22	37.13
680.55	53.27
680.88	50.04
681.20	60.69
681.53	57.14
681.85	50.68
682.18	52.62
682.50	59.40
682.83	72.64
683.15	82.65
683.47	77.80
683.80	96.20
684.12	91.04
684.45	90.39
684.77	73.93
685.10	53.91
685.42	54.88
685.75	48.75
686.07	18.72
686.40	19.05
686.72	8.07
687.04	26.47
687.37	28.09
687.69	17.43
688.02	21.31
688.34	22.28
688.67	31.31
688.99	24.86
689.31	7.10
689.64	3.55
689.96	-1.94
690.28	-14.85
690.61	-5.49
690.93	-2.58
691.26	11.94
691.58	15.82
691.90	20.34
692.23	33.25
692.55	40.03
692.87	27.44
693.20	12.59
693.52	10.65
693.84	10.33
694.17	17.43
694.49	25.83
694.81	20.98
695.14	30.67
695.46	32.28
695.78	25.50
696.11	34.54
696.43	21.31
696.75	11.30
697.08	36.80
697.40	31.31
697.72	36.16
698.04	33.90
698.37	38.74
698.69	25.50
699.01	8.07
699.33	-9.04
699.66	2.58
699.98	8.39
700.30	4.84
700.62	0.32
700.95	10.65
701.27	24.21
701.59	20.98
701.91	12.27
702.24	-19.05
702.56	-13.56
702.88	-29.05
703.20	-20.02
703.52	-19.37
703.85	-21.31
704.17	-23.89
704.49	10.01
704.81	18.40
705.13	38.09
705.45	38.09
705.78	34.87
706.10	43.26
706.42	48.42
706.74	54.88
707.06	62.63
707.38	41.97
707.71	28.09
708.03	44.55
708.35	49.72
708.67	54.56
708.99	35.51
709.31	25.50
709.63	26.80
709.95	47.46
710.27	29.70
710.60	13.56
710.92	9.36
711.24	10.98
711.56	2.91
711.88	0.32
712.20	2.58
712.52	-10.01
712.84	-6.78
713.16	-6.13
713.48	-1.61
713.80	10.98
714.12	13.24
714.44	2.58
714.76	2.58
715.08	19.37
715.40	17.43
715.72	15.17
716.04	15.50
716.36	15.17
716.68	1.29
717.00	21.63
717.32	14.85
717.64	18.08
717.96	16.14
718.28	4.52
718.60	7.10
718.92	8.72
719.24	2.26
719.56	-5.49
719.88	-21.95
720.20	-23.57
720.52	-22.60
720.84	-24.21
721.16	-7.10
721.48	-3.23
721.80	-6.78
722.12	-5.17
722.44	4.52
722.76	-2.26
723.08	3.23
723.40	-5.81
723.72	-19.37
724.03	-0.97
724.35	0.00
724.67	-4.84
724.99	0.32
725.31	-8.72
725.63	-14.85
725.95	-1.29
726.27	-16.79
726.58	4.52
726.90	2.91
727.22	0.32
727.54	11.62
727.86	25.18
728.18	22.28
728.50	12.91
728.81	-2.91
729.13	-5.17
729.45	-2.58
729.77	-24.54
730.09	-42.29
730.40	-42.29
730.72	-23.89
731.04	-17.43
731.36	-11.30
731.68	-0.32
731.99	10.98
732.31	21.95
732.63	16.46
732.95	14.53
733.27	10.98
733.58	-1.94
733.90	-14.20
734.22	-11.62
734.54	-18.08
734.85	-27.44
735.17	-37.13
735.49	-37.45
735.80	-53.59
736.12	-46.81
736.44	-29.38
736.76	-37.13
737.07	-35.19
737.39	-42.61
737.71	-50.04
738.02	-23.57
738.34	-10.01
738.66	-23.24
738.97	-3.87
739.29	24.86
739.61	31.96
739.93	41.65
740.24	51.01
740.56	36.48
740.87	37.45
741.19	27.44
741.51	0.65
741.82	6.78
742.14	18.72
742.46	-1.94
742.77	-4.52
743.09	-8.72
743.41	-13.56
743.72	-7.43
744.04	-10.65
744.35	-18.08
744.67	-6.78
744.99	-31.96
745.30	-30.67
745.62	-35.83
745.93	-15.82
746.25	-0.00
746.56	-9.36
746.88	-22.28
747.20	2.58
747.51	-12.27
747.83	-13.88
748.14	-31.96
748.46	-45.52
748.77	-35.51
749.09	-20.98
749.40	-27.76
749.72	-17.43
750.03	-0.65
750.35	-7.75
750.66	-12.91
750.98	-22.92
751.29	-38.74
751.61	-15.82
751.92	-2.91
752.24	-9.68
752.55	-9.04
752.87	2.91
753.18	8.07
753.50	24.86
753.81	22.28
754.13	10.65
754.44	20.66
754.76	26.80
755.07	23.57
755.38	25.18
755.70	18.08
756.01	1.94
756.33	-4.20
756.64	-16.14
756.95	-24.54
757.27	-26.47
757.58	-29.38
757.90	-29.05
758.21	-26.80
758.52	0.65
758.84	-7.43
759.15	-0.97
759.47	-3.23
759.78	-4.84
760.09	4.84
760.41	-0.65
760.72	-10.65
761.03	12.59
761.35	15.50
761.66	17.76
761.97	0.32
762.29	-11.62
762.60	-17.76
762.91	-13.24
763.23	-9.04
763.54	-21.31
763.85	-32.28
764.17	-13.24
764.48	-10.98
764.79	-2.91
765.10	-23.89
765.42	-45.84
765.73	-33.25
766.04	-18.08
766.36	-21.95
766.67	-16.46
766.98	-5.49
767.29	7.43
767.61	3.87
767.92	-2.91
768.23	-14.85
768.54	-7.43
768.86	10.01
769.17	14.20
769.48	16.14
769.79	27.12
770.10	49.07
770.42	51.01
770.73	39.39
771.04	14.85
771.35	-8.07
771.66	-4.20
771.98	-6.13
772.29	-35.83
772.60	-19.37
772.91	-6.46
773.22	0.32
773.53	11.94
773.85	13.88
774.16	24.21
774.47	32.61
774.78	20.66
775.09	16.14
775.40	20.66
775.71	22.60
776.02	24.21
776.34	31.31
776.65	39.06
776.96	32.28
777.27	33.57
777.58	29.70
777.89	42.94
778.20	37.45
778.51	31.96
778.82	25.83
779.13	25.18
779.44	14.20
779.75	13.88
780.06	-7.43
780.38	-12.27
780.69	-40.68
781.00	-39.06
781.31	-45.84
781.62	-20.66
781.93	-18.08
782.24	-4.20
782.55	-13.88
782.86	2.58
783.17	3.87
783.48	-0.97
783.79	-19.05
784.10	-10.33
784.41	-22.92
784.72	-16.14
785.03	-15.17
785.34	-10.98
785.65	8.07
785.96	1.61
786.27	-17.43
786.57	-10.65
786.88	-12.91
787.19	-5.49
787.50	4.84
787.81	-4.84
788.12	-3.87
788.43	-1.61
788.74	10.01
789.05	3.55
789.36	-11.94
789.67	-23.57
789.98	-21.95
790.29	-9.04
790.59	0.32
790.90	-22.28
791.21	-16.14
791.52	-16.14
791.83	-24.21
792.14	-16.79
792.45	-32.93
792.75	-45.52
793.06	-16.14
793.37	-12.59
793.68	2.26
793.99	10.65
794.30	6.46
794.60	20.02
794.91	14.20
795.22	-3.87
795.53	0.97
795.84	-10.01
796.15	1.61
796.45	5.17
796.76	8.72
797.07	11.94
797.38	11.62
797.68	10.33
797.99	9.36
798.30	-0.65
798.61	-11.30
798.91	-12.59
799.22	-2.58
799.53	-5.81
799.84	0.65
800.14	-1.61
800.45	-1.61
800.76	1.94
801.07	-13.24
801.37	-16.46
801.68	-13.24
801.99	-1.61
802.29	19.69
802.60	10.65
802.91	10.33
803.22	28.09
803.52	35.51
803.83	40.68
804.14	20.34
804.44	7.43
804.75	13.88
805.06	22.92
805.36	35.83
805.67	38.74
805.97	32.28
806.28	19.37
806.59	12.59
806.89	14.85
807.20	8.39
807.51	-21.31
807.81	-15.17
808.12	2.26
808.42	33.57
808.73	37.77
809.04	33.90
809.34	47.46
809.65	50.04
809.95	35.19
810.26	29.05
810.56	2.58
810.87	19.69
811.18	23.89
811.48	16.14
811.79	21.95
812.09	36.16
812.40	26.80
812.70	23.57
813.01	4.20
813.31	-0.97
813.62	-3.55
813.92	9.68
814.23	-4.20
814.53	-14.53
814.84	-3.87
815.14	15.50
815.45	15.50
815.75	26.80
816.06	16.79
816.36	9.36
816.67	40.35
816.97	33.57
817.28	10.01
817.58	7.43
817.89	-1.29
818.19	-4.20
818.49	-5.81
818.80	-30.99
819.10	-26.80
819.41	-11.62
819.71	-4.20
820.01	-18.40
820.32	-22.60
820.62	-3.55
820.93	-7.10
821.23	0.65
821.53	-14.20
821.84	-9.36
822.14	11.94
822.45	12.91
822.75	6.13
823.05	7.10
823.36	-2.26
823.66	0.97
823.96	-13.88
824.27	-24.86
824.57	-23.89
824.87	-26.15
825.18	-11.94
825.48	-3.23
825.78	-0.97
826.09	-7.75
826.39	-34.87
826.69	-35.51
827.00	-29.70
827.30	-37.13
827.60	-58.43
827.90	-67.47
828.21	-48.75
828.51	-20.34
828.81	-13.56
829.11	-16.14
829.42	-7.43
829.72	6.46
830.02	9.04
830.32	11.62
830.63	4.52
830.93	-8.72
831.23	-13.24
831.53	-15.82
831.84	-12.91
832.14	12.27
832.44	3.23
832.74	16.14
833.04	22.92
833.35	24.86
833.65	17.11
833.95	24.86
834.25	1.61
834.55	-0.97
834.85	-9.36
835.16	8.39
835.46	6.13
835.76	9.68
836.06	-5.49
836.36	1.94
836.66	-10.98
836.96	-3.87
837.26	-20.98
837.57	-23.57
837.87	-16.79
838.17	-8.39
838.47	-3.87
838.77	10.33
839.07	13.24
839.37	13.24
839.67	19.05
839.97	14.20
840.27	13.24
840.57	9.04
840.88	8.39
841.18	-1.94
841.48	10.98
841.78	14.53
842.08	13.24
842.38	10.33
842.68	2.58
842.98	9.36
843.28	1.94
843.58	-10.33
843.88	-11.94
844.18	-17.11
844.48	-20.98
844.78	-19.05
845.08	-33.57
845.38	-24.21
845.68	-20.66
845.98	-21.95
846.28	-27.44
846.58	-22.60
846.88	-14.20
847.18	5.17
847.48	15.17
847.78	18.40
848.07	2.26
848.37	14.53
848.67	20.34
848.97	17.43
849.27	31.31
849.57	21.31
849.87	19.37
850.17	20.66
850.47	-1.61
850.77	-4.20
851.07	-7.43
851.36	-45.84
851.66	-38.42
851.96	-35.51
852.26	-28.73
852.56	-7.10
852.86	-4.20
853.16	-5.49
853.45	14.53
853.75	7.43
854.05	-2.58
854.35	2.91
854.65	-2.26
854.95	-12.91
855.24	-26.80
855.54	-35.51
855.84	-48.10
856.14	-30.99
856.44	-47.13
856.73	-41.97
857.03	-21.63
857.33	6.13
857.63	9.68
857.93	22.60
858.22	12.59
858.52	34.22
858.82	34.22
859.12	35.19
859.41	32.61
859.71	30.67
860.01	23.89
860.30	20.98
860.60	17.11
860.90	17.11
861.20	-12.59
861.49	-13.56
861.79	-21.95
862.09	-10.98
862.38	-2.58
862.68	0.00
862.98	-12.59
863.27	12.91
863.57	-1.29
863.87	12.27
864.16	29.70
864.46	30.99
864.76	17.11
865.05	27.76
865.35	27.76
865.65	44.23
865.94	31.31
866.24	7.43
866.54	12.59
866.83	7.10
867.13	3.23
867.42	-19.69
867.72	-28.09
868.02	-16.46
868.31	-26.47
868.61	-39.71
868.90	-23.24
869.20	-28.41
869.49	-9.04
869.79	-3.23
870.08	4.52
870.38	14.20
870.68	9.68
870.97	8.07
871.27	17.76
871.56	28.09
871.86	8.72
872.15	-2.91
872.45	2.58
872.74	0.65
873.04	3.87
873.33	0.65
873.63	-23.24
873.92	-22.92
874.22	-6.78
874.51	-5.81
874.81	4.52
875.10	-10.01
875.40	2.58
875.69	20.02
875.98	24.54
876.28	11.62
876.57	6.78
876.87	-11.30
877.16	2.26
877.46	-12.59
877.75	-36.80
878.04	-27.12
878.34	-31.31
878.63	-40.68
878.93	-17.43
879.22	-27.76
879.51	-23.24
879.81	-12.91
880.10	-15.17
880.40	-12.91
880.69	-14.53
880.98	-27.12
881.28	-31.96
881.57	-36.48
881.86	-44.55
882.16	-48.10
882.45	-43.91
882.74	-26.47
883.04	-31.96
883.33	-18.72
883.62	-4.84
883.92	-45.20
884.21	4.52
884.50	70.05
>>>>>End Processed Spectral Data<<<<<
