SpectraSuite Data File
++++++++++++++++++++++++++++++++++++
Date: Thu Mar 23 14:04:21 EDT 2017
User: Administrator
Dark Spectrum Present: Yes
Reference Spectrum Present: No
Number of Sampled Component Spectra: 1
Spectrometers: SB2+H01071
Integration Time (usec): 5000000 (SB2+H01071)
Spectra Averaged: 1 (SB2+H01071)
Boxcar Smoothing: 3 (SB2+H01071)
Correct for Electrical Dark: No (SB2+H01071)
Strobe/Lamp Enabled: No (SB2+H01071)
Correct for Detector Non-linearity: No (SB2+H01071)
Correct for Stray Light: No (SB2+H01071)
Number of Pixels in Processed Spectrum: 2048
>>>>>Begin Processed Spectral Data<<<<<
191.06	20.34
191.43	20.34
191.81	20.34
192.19	25.18
192.56	20.02
192.94	4.52
193.31	-0.65
193.69	-16.46
194.07	-11.62
194.44	-26.80
194.82	-39.06
195.19	-42.61
195.57	-27.76
195.95	-32.93
196.32	-41.00
196.70	-42.61
197.07	-31.31
197.45	-29.38
197.83	-29.70
198.20	-32.28
198.58	-16.14
198.95	-3.23
199.33	6.13
199.70	-3.23
200.08	15.50
200.46	31.64
200.83	34.87
201.21	16.14
201.58	5.81
201.96	2.58
202.33	6.13
202.71	0.00
203.09	-17.43
203.46	-17.11
203.84	-9.04
204.21	3.87
204.59	-4.20
204.96	5.49
205.34	12.59
205.71	19.05
206.09	25.50
206.46	30.99
206.84	35.51
207.21	42.29
207.59	39.71
207.96	30.35
208.34	32.93
208.71	28.09
209.09	31.31
209.46	23.89
209.84	7.43
210.21	-2.26
210.59	5.17
210.96	-5.17
211.34	-19.05
211.71	-35.51
212.09	-39.39
212.46	-24.86
212.84	-12.91
213.21	-17.43
213.59	0.32
213.96	10.65
214.34	20.66
214.71	20.02
215.08	20.34
215.46	-6.46
215.83	-13.88
216.21	-10.98
216.58	-14.53
216.96	-16.79
217.33	-19.37
217.70	-20.02
218.08	0.32
218.45	7.10
218.83	20.02
219.20	31.96
219.58	29.05
219.95	32.61
220.32	39.71
220.70	33.25
221.07	31.96
221.45	-0.65
221.82	-10.65
222.19	-9.04
222.57	1.61
222.94	-5.49
223.32	-2.26
223.69	-0.65
224.06	16.14
224.44	25.50
224.81	29.38
225.18	51.65
225.56	53.91
225.93	52.94
226.31	35.51
226.68	15.17
227.05	0.65
227.43	-15.17
227.80	-39.39
228.17	-39.06
228.55	-38.09
228.92	-21.63
229.29	-6.46
229.67	4.20
230.04	29.05
230.41	32.93
230.79	30.35
231.16	41.32
231.53	47.46
231.91	39.39
232.28	22.28
232.65	0.32
233.03	-2.58
233.40	-20.34
233.77	-28.09
234.15	-22.60
234.52	-11.94
234.89	4.52
235.26	32.61
235.64	30.67
236.01	57.46
236.38	63.92
236.76	48.10
237.13	59.40
237.50	49.72
237.87	31.31
238.25	31.96
238.62	24.86
238.99	7.43
239.36	4.52
239.74	-21.31
240.11	-31.31
240.48	-19.37
240.85	-7.75
241.23	-15.17
241.60	0.32
241.97	14.20
242.34	18.72
242.72	31.96
243.09	6.46
243.46	-4.52
243.83	-12.27
244.20	-20.98
244.58	-30.67
244.95	-21.63
245.32	-26.80
245.69	-28.73
246.07	-32.61
246.44	-23.89
246.81	-28.73
247.18	-20.66
247.55	-21.63
247.92	-3.23
248.30	24.21
248.67	26.15
249.04	23.57
249.41	32.28
249.78	20.98
250.16	14.85
250.53	18.08
250.90	19.69
251.27	8.72
251.64	19.37
252.01	9.04
252.39	29.38
252.76	33.90
253.13	14.20
253.50	-6.13
253.87	0.97
254.24	-6.46
254.61	1.29
254.98	-2.58
255.36	-7.10
255.73	17.43
256.10	28.41
256.47	37.13
256.84	35.83
257.21	32.28
257.58	8.72
257.95	13.24
258.33	-1.94
258.70	-0.00
259.07	8.72
259.44	10.65
259.81	21.31
260.18	29.38
260.55	20.34
260.92	21.95
261.29	4.52
261.66	-15.82
262.03	-4.20
262.40	-21.63
262.77	-12.59
263.15	-12.59
263.52	-14.85
263.89	24.54
264.26	41.00
264.63	35.19
265.00	43.58
265.37	37.77
265.74	52.30
266.11	64.57
266.48	54.56
266.85	43.91
267.22	37.45
267.59	40.68
267.96	53.59
268.33	45.52
268.70	37.13
269.07	26.80
269.44	18.08
269.81	22.92
270.18	18.40
270.55	8.39
270.92	4.52
271.29	-9.04
271.66	-12.91
272.03	6.46
272.40	8.39
272.77	3.55
273.14	-24.21
273.51	-21.63
273.88	-4.20
274.25	-6.46
274.62	-28.09
274.99	-36.48
275.36	-32.28
275.73	-2.58
276.10	-21.31
276.47	-32.28
276.84	-43.58
277.21	-32.93
277.58	-45.52
277.94	-48.75
278.31	-65.54
278.68	-51.33
279.05	-50.04
279.42	-23.57
279.79	-19.05
280.16	-14.53
280.53	0.97
280.90	8.39
281.27	21.31
281.64	29.05
282.01	18.08
282.37	15.17
282.74	25.18
283.11	22.92
283.48	20.98
283.85	9.68
284.22	-0.97
284.59	-6.13
284.96	-4.20
285.33	-13.88
285.69	-20.02
286.06	-17.43
286.43	-23.24
286.80	-21.31
287.17	-19.05
287.54	-15.82
287.91	-0.32
288.27	-0.32
288.64	0.97
289.01	-1.29
289.38	-2.58
289.75	-3.55
290.12	1.29
290.48	0.00
290.85	9.36
291.22	19.69
291.59	32.93
291.96	26.15
292.33	30.99
292.69	15.82
293.06	8.72
293.43	15.82
293.80	28.09
294.17	30.35
294.53	34.87
294.90	28.41
295.27	24.21
295.64	18.08
296.01	-2.91
296.37	-21.31
296.74	-25.18
297.11	-11.94
297.48	-9.36
297.84	1.61
298.21	3.23
298.58	15.17
298.95	16.14
299.31	9.04
299.68	-8.07
300.05	1.94
300.42	-0.97
300.78	1.29
301.15	3.55
301.52	1.29
301.89	7.43
302.25	24.54
302.62	-0.65
302.99	8.39
303.35	11.62
303.72	1.29
304.09	17.76
304.46	15.82
304.82	11.94
305.19	32.93
305.56	33.90
305.92	44.55
306.29	45.84
306.66	37.77
307.02	48.42
307.39	53.27
307.76	50.68
308.12	53.59
308.49	46.49
308.86	27.12
309.23	20.02
309.59	9.04
309.96	-12.27
310.32	-11.30
310.69	-22.60
311.06	-29.70
311.42	-8.07
311.79	3.87
312.16	-1.61
312.52	2.58
312.89	11.30
313.26	1.29
313.62	9.36
313.99	-3.23
314.35	-5.17
314.72	-3.87
315.09	8.39
315.45	3.55
315.82	2.26
316.19	0.32
316.55	9.36
316.92	2.58
317.28	3.87
317.65	14.85
318.02	-2.58
318.38	12.27
318.75	15.17
319.11	4.52
319.48	-0.65
319.84	-2.26
320.21	-16.14
320.58	-0.97
320.94	-10.01
321.31	-15.82
321.67	-11.30
322.04	2.91
322.40	11.30
322.77	-0.97
323.13	-13.56
323.50	-16.14
323.86	-27.44
324.23	-24.86
324.60	-38.42
324.96	-30.35
325.33	-20.02
325.69	-6.13
326.06	3.55
326.42	19.37
326.79	25.50
327.15	30.35
327.52	20.02
327.88	18.72
328.25	17.43
328.61	30.67
328.98	44.87
329.34	19.37
329.71	7.75
330.07	2.91
330.44	-2.58
330.80	-27.76
331.16	-47.78
331.53	-64.24
331.89	-61.66
332.26	-44.23
332.62	-28.41
332.99	-24.21
333.35	-8.07
333.72	-13.88
334.08	-3.87
334.45	26.15
334.81	13.88
335.17	-3.87
335.54	-15.82
335.90	-12.59
336.27	-3.87
336.63	-12.91
337.00	-17.76
337.36	-16.79
337.72	-4.52
338.09	11.94
338.45	19.69
338.82	17.43
339.18	20.98
339.54	23.89
339.91	27.44
340.27	16.46
340.63	17.76
341.00	15.17
341.36	21.63
341.73	5.81
342.09	0.00
342.45	8.72
342.82	25.18
343.18	34.54
343.54	27.12
343.91	21.31
344.27	35.51
344.63	22.92
345.00	14.85
345.36	-13.56
345.72	-41.65
346.09	-48.10
346.45	-42.94
346.81	-51.65
347.18	-32.93
347.54	-20.02
347.90	1.61
348.27	-0.65
348.63	13.56
348.99	30.35
349.36	44.23
349.72	29.05
350.08	18.08
350.45	13.24
350.81	23.24
351.17	0.32
351.53	-24.86
351.90	-38.74
352.26	-24.21
352.62	-49.07
352.98	-46.17
353.35	-31.31
353.71	-26.80
354.07	-11.30
354.44	-8.39
354.80	-20.98
355.16	5.49
355.52	3.23
355.88	-9.04
356.25	-5.17
356.61	-5.81
356.97	-1.61
357.33	17.76
357.70	19.69
358.06	28.41
358.42	13.24
358.78	16.46
359.15	16.46
359.51	12.91
359.87	0.32
360.23	-5.49
360.59	-9.68
360.95	13.56
361.32	16.79
361.68	11.30
362.04	-2.26
362.40	-9.68
362.76	-13.56
363.13	-10.01
363.49	0.65
363.85	5.17
364.21	-6.78
364.57	4.84
364.93	9.04
365.30	29.38
365.66	10.33
366.02	2.58
366.38	0.97
366.74	3.23
367.10	4.84
367.46	-6.46
367.83	-14.53
368.19	-7.43
368.55	-7.10
368.91	-7.75
369.27	-7.43
369.63	-11.30
369.99	0.65
370.35	-12.59
370.71	-10.33
371.08	-13.88
371.44	-5.81
371.80	6.46
372.16	8.72
372.52	5.81
372.88	8.07
373.24	9.04
373.60	4.84
373.96	-0.32
374.32	7.75
374.68	13.56
375.04	21.95
375.40	34.54
375.76	35.19
376.13	34.54
376.49	20.98
376.85	-3.87
377.21	-16.46
377.57	-20.02
377.93	-29.05
378.29	-24.54
378.65	-38.42
379.01	-44.55
379.37	-30.02
379.73	-25.18
380.09	-22.28
380.45	-23.24
380.81	-21.31
381.17	-15.82
381.53	-10.01
381.89	-16.79
382.25	-23.57
382.61	-16.79
382.97	-10.65
383.33	-8.07
383.69	0.00
384.05	4.20
384.41	5.17
384.77	22.92
385.13	14.85
385.49	4.84
385.85	-4.20
386.20	2.58
386.56	3.87
386.92	12.59
387.28	8.07
387.64	2.91
388.00	-8.72
388.36	0.32
388.72	2.91
389.08	-1.61
389.44	-10.98
389.80	-24.86
390.16	-30.02
390.52	-4.52
390.88	0.97
391.23	-18.72
391.59	-14.20
391.95	-14.85
392.31	1.61
392.67	19.69
393.03	5.17
393.39	-23.57
393.75	-10.33
394.11	-7.75
394.46	-11.30
394.82	-4.52
395.18	-18.72
395.54	-20.98
395.90	-13.56
396.26	-13.24
396.62	-22.28
396.97	-13.88
397.33	-31.96
397.69	-27.44
398.05	-26.47
398.41	-17.76
398.77	-13.56
399.12	-2.91
399.48	-2.58
399.84	17.76
400.20	19.69
400.56	20.02
400.91	22.28
401.27	6.13
401.63	12.27
401.99	20.02
402.35	10.65
402.70	15.50
403.06	24.21
403.42	23.89
403.78	30.02
404.14	27.44
404.49	16.14
404.85	10.98
405.21	-3.87
405.57	-2.26
405.92	-5.49
406.28	6.78
406.64	3.23
407.00	9.04
407.35	5.81
407.71	7.75
408.07	9.04
408.43	13.88
408.78	-1.61
409.14	-15.17
409.50	-23.89
409.85	-10.65
410.21	-3.23
410.57	-3.55
410.93	-2.91
411.28	-13.88
411.64	15.50
412.00	26.80
412.35	28.09
412.71	27.12
413.07	16.14
413.42	-0.32
413.78	16.79
414.14	0.00
414.49	-8.39
414.85	-23.89
415.21	-40.03
415.56	-33.90
415.92	-15.17
416.28	-15.17
416.63	-11.30
416.99	5.49
417.35	15.50
417.70	19.69
418.06	19.05
418.42	-1.61
418.77	21.63
419.13	23.24
419.48	-2.91
419.84	-4.84
420.20	-2.91
420.55	5.81
420.91	21.31
421.27	11.30
421.62	-0.32
421.98	-7.10
422.33	-6.46
422.69	-7.75
423.05	-18.40
423.40	-3.55
423.76	-4.52
424.11	7.10
424.47	13.24
424.82	-1.61
425.18	11.30
425.54	3.23
425.89	-1.94
426.25	-3.87
426.60	-9.68
426.96	-5.81
427.31	13.88
427.67	17.11
428.02	17.76
428.38	5.81
428.73	-4.52
429.09	2.91
429.44	0.32
429.80	-9.04
430.15	-28.41
430.51	-17.11
430.86	-19.37
431.22	-11.62
431.57	-17.11
431.93	-6.78
432.28	-2.58
432.64	14.20
432.99	12.59
433.35	3.87
433.70	-11.94
434.06	-24.54
434.41	-32.93
434.77	-31.64
435.12	-38.74
435.48	-45.52
435.83	-33.57
436.19	-16.79
436.54	-4.20
436.89	5.17
437.25	-9.36
437.60	-3.23
437.96	-3.55
438.31	-3.23
438.67	-24.54
439.02	-27.76
439.37	-44.87
439.73	-33.90
440.08	-46.49
440.44	-60.05
440.79	-60.05
441.15	-40.35
441.50	-44.55
441.85	-21.31
442.21	-13.88
442.56	-2.58
442.91	20.66
443.27	23.57
443.62	22.92
443.98	31.96
444.33	22.92
444.68	3.23
445.04	3.55
445.39	4.52
445.74	7.10
446.10	-4.52
446.45	-13.56
446.80	-17.76
447.16	2.58
447.51	1.29
447.86	-5.49
448.22	-23.57
448.57	-15.50
448.92	1.29
449.28	4.52
449.63	-9.68
449.98	-23.24
450.34	-16.46
450.69	-16.14
451.04	-14.20
451.40	-16.14
451.75	-15.82
452.10	-7.43
452.45	13.88
452.81	13.88
453.16	22.28
453.51	7.10
453.86	-1.94
454.22	3.23
454.57	-4.52
454.92	-18.08
455.27	-36.80
455.63	-38.09
455.98	-20.02
456.33	-19.05
456.68	-23.89
457.04	-20.34
457.39	-16.14
457.74	3.87
458.09	-0.65
458.45	-24.21
458.80	-20.02
459.15	-11.62
459.50	-14.53
459.85	-12.27
460.21	-25.18
460.56	-19.37
460.91	-6.46
461.26	-7.43
461.61	-28.73
461.97	-17.43
462.32	-23.89
462.67	-8.07
463.02	-5.17
463.37	-2.26
463.72	-7.75
464.08	14.53
464.43	8.39
464.78	32.93
465.13	38.74
465.48	26.47
465.83	26.80
466.18	49.39
466.54	42.94
466.89	23.24
467.24	9.68
467.59	-0.65
467.94	6.78
468.29	16.14
468.64	11.62
468.99	6.13
469.34	13.24
469.70	0.00
470.05	-21.63
470.40	-17.11
470.75	-25.83
471.10	-53.59
471.45	-49.39
471.80	-25.50
472.15	-4.20
472.50	-0.65
472.85	2.58
473.20	23.89
473.55	52.30
473.90	53.59
474.25	33.57
474.61	6.13
474.96	32.28
475.31	44.23
475.66	20.34
476.01	-1.94
476.36	7.10
476.71	31.96
477.06	56.50
477.41	34.54
477.76	24.54
478.11	36.48
478.46	46.17
478.81	17.43
479.16	0.97
479.51	-16.46
479.86	-4.84
480.21	-1.29
480.56	-7.75
480.91	-6.46
481.26	5.49
481.61	1.29
481.96	15.82
482.31	5.81
482.66	-5.49
483.00	-11.62
483.35	-22.28
483.70	-19.05
484.05	-18.40
484.40	-30.67
484.75	-25.83
485.10	-33.57
485.45	-29.70
485.80	-14.85
486.15	-2.26
486.50	-5.81
486.85	4.52
487.20	20.02
487.55	18.08
487.89	6.78
488.24	2.26
488.59	-14.53
488.94	-2.26
489.29	-20.98
489.64	-30.99
489.99	-32.93
490.34	-28.09
490.68	-32.61
491.03	-24.54
491.38	-20.98
491.73	-9.36
492.08	4.52
492.43	20.02
492.78	22.60
493.12	13.56
493.47	19.05
493.82	10.01
494.17	4.20
494.52	-7.43
494.87	-5.49
495.21	8.39
495.56	17.76
495.91	20.34
496.26	16.46
496.61	28.73
496.95	16.46
497.30	20.34
497.65	0.65
498.00	10.33
498.35	12.91
498.69	19.05
499.04	9.68
499.39	16.14
499.74	0.97
500.08	10.01
500.43	0.97
500.78	-8.39
501.13	-4.20
501.48	0.65
501.82	3.87
502.17	1.61
502.52	-6.13
502.86	-5.17
503.21	-11.62
503.56	-24.54
503.91	-35.51
504.25	-43.91
504.60	-29.38
504.95	-13.24
505.30	-8.72
505.64	-7.10
505.99	7.10
506.34	36.16
506.68	49.39
507.03	30.99
507.38	20.66
507.72	8.07
508.07	9.36
508.42	-5.49
508.76	-30.67
509.11	-33.57
509.46	-13.88
509.80	-7.43
510.15	-17.43
510.50	-20.02
510.84	-14.20
511.19	-11.62
511.54	-12.91
511.88	-19.05
512.23	-23.57
512.57	-3.23
512.92	-3.23
513.27	11.30
513.61	-9.36
513.96	-6.78
514.31	-11.62
514.65	-7.43
515.00	-13.56
515.34	-9.36
515.69	-29.05
516.03	-4.84
516.38	-20.98
516.73	-3.23
517.07	-6.13
517.42	1.94
517.76	-0.97
518.11	12.59
518.45	16.14
518.80	20.02
519.15	21.95
519.49	36.48
519.84	26.80
520.18	37.45
520.53	27.76
520.87	24.21
521.22	35.19
521.56	8.07
521.91	-10.98
522.25	-2.91
522.60	3.23
522.94	5.81
523.29	13.88
523.63	8.39
523.98	26.80
524.32	20.34
524.67	29.70
525.01	13.88
525.36	22.28
525.70	-3.55
526.05	-2.26
526.39	-11.62
526.74	-3.87
527.08	-22.92
527.43	-27.44
527.77	-39.06
528.12	-22.28
528.46	-26.47
528.80	-22.60
529.15	-19.05
529.49	-18.72
529.84	-3.87
530.18	9.36
530.53	19.05
530.87	34.22
531.21	30.67
531.56	35.19
531.90	33.57
532.25	12.59
532.59	6.46
532.93	-15.17
533.28	-24.21
533.62	-19.05
533.97	-15.17
534.31	-5.49
534.65	-2.58
535.00	-7.75
535.34	0.32
535.68	8.72
536.03	-1.61
536.37	-20.34
536.71	-22.92
537.06	-7.10
537.40	8.39
537.74	2.91
538.09	-3.87
538.43	-3.87
538.77	4.84
539.12	0.00
539.46	-9.68
539.80	-20.66
540.15	-5.17
540.49	-10.98
540.83	-19.37
541.18	17.43
541.52	30.67
541.86	24.54
542.20	17.43
542.55	11.62
542.89	20.02
543.23	41.32
543.58	4.52
543.92	6.46
544.26	11.30
544.60	11.30
544.95	9.04
545.29	9.36
545.63	20.66
545.97	21.95
546.32	24.86
546.66	34.54
547.00	37.77
547.34	52.30
547.68	49.07
548.03	42.61
548.37	40.68
548.71	22.28
549.05	38.09
549.39	43.91
549.74	43.58
550.08	37.77
550.42	16.46
550.76	19.37
551.10	36.80
551.45	27.76
551.79	18.72
552.13	8.07
552.47	7.75
552.81	7.75
553.15	16.79
553.50	-0.97
553.84	-29.38
554.18	-26.47
554.52	-22.92
554.86	-16.79
555.20	2.58
555.54	-11.62
555.88	-11.30
556.23	2.58
556.57	11.94
556.91	-2.58
557.25	19.69
557.59	11.30
557.93	18.08
558.27	18.08
558.61	15.17
558.95	22.28
559.29	44.87
559.64	26.80
559.98	20.34
560.32	8.72
560.66	9.68
561.00	26.80
561.34	2.91
561.68	-11.94
562.02	-21.95
562.36	-17.11
562.70	6.46
563.04	16.14
563.38	1.61
563.72	7.43
564.06	13.24
564.40	11.94
564.74	12.91
565.08	-12.91
565.42	-18.72
565.76	-17.76
566.10	-6.78
566.44	-20.34
566.78	-18.72
567.12	-13.56
567.46	-6.46
567.80	-9.36
568.14	-6.13
568.48	-20.98
568.82	-18.08
569.16	-14.85
569.50	-10.98
569.84	-10.33
570.18	48.75
570.52	50.68
570.86	54.24
571.20	70.70
571.54	61.02
571.88	50.04
572.22	61.02
572.55	27.44
572.89	23.57
573.23	16.79
573.57	12.27
573.91	25.18
574.25	34.87
574.59	28.09
574.93	3.23
575.27	-11.30
575.61	2.58
575.94	-4.20
576.28	-7.75
576.62	-9.36
576.96	-12.59
577.30	-6.78
577.64	-1.29
577.98	-14.20
578.32	-13.24
578.65	-21.31
578.99	-21.63
579.33	-46.49
579.67	-52.94
580.01	-61.66
580.35	-61.02
580.68	-67.47
581.02	-68.44
581.36	-55.85
581.70	-24.86
582.04	-21.63
582.37	-3.87
582.71	8.72
583.05	12.59
583.39	17.11
583.73	-3.23
584.06	4.84
584.40	26.47
584.74	32.28
585.08	33.25
585.41	34.22
585.75	40.35
586.09	40.35
586.43	20.98
586.76	0.00
587.10	-15.50
587.44	-23.24
587.78	-41.00
588.11	-42.29
588.45	-44.55
588.79	-48.75
589.13	-53.59
589.46	-59.08
589.80	-60.37
590.14	-51.33
590.47	-51.65
590.81	-56.50
591.15	-58.11
591.48	-58.76
591.82	-31.64
592.16	-0.32
592.50	15.50
592.83	2.26
593.17	13.24
593.51	26.80
593.84	34.87
594.18	30.02
594.51	2.58
594.85	0.65
595.19	7.43
595.52	21.31
595.86	24.86
596.20	23.57
596.53	6.78
596.87	5.81
597.21	2.91
597.54	6.78
597.88	-6.13
598.21	-5.49
598.55	0.97
598.89	12.91
599.22	15.17
599.56	5.17
599.89	6.46
600.23	9.04
600.57	16.79
600.90	10.65
601.24	1.94
601.57	1.94
601.91	17.11
602.24	5.49
602.58	-6.46
602.91	-14.85
603.25	-2.26
603.58	-1.61
603.92	1.29
604.26	5.49
604.59	27.76
604.93	39.71
605.26	22.60
605.60	9.36
605.93	12.91
606.27	1.61
606.60	-4.20
606.94	-12.59
607.27	-23.24
607.61	-15.17
607.94	-18.40
608.28	-19.69
608.61	-10.98
608.95	0.32
609.28	-7.75
609.61	-8.07
609.95	-3.55
610.28	-16.79
610.62	-14.53
610.95	-12.27
611.29	-40.35
611.62	-43.26
611.96	-37.77
612.29	-36.48
612.62	-19.69
612.96	-19.69
613.29	-29.05
613.63	-20.66
613.96	-4.52
614.29	-6.46
614.63	-20.98
614.96	-31.64
615.30	-34.87
615.63	-26.80
615.96	-15.82
616.30	-36.48
616.63	-32.93
616.97	-27.12
617.30	-12.59
617.63	-9.68
617.97	-6.78
618.30	-22.60
618.63	-7.75
618.97	1.29
619.30	14.20
619.63	12.91
619.97	-2.91
620.30	-31.64
620.63	-19.05
620.97	-19.05
621.30	-21.63
621.63	-27.44
621.97	-32.28
622.30	-3.55
622.63	6.78
622.96	-13.56
623.30	-7.43
623.63	-15.17
623.96	-28.73
624.30	-26.47
624.63	-27.44
624.96	-25.83
625.29	-4.20
625.63	-29.05
625.96	-12.59
626.29	15.50
626.62	-1.29
626.96	-12.59
627.29	-13.56
627.62	-26.47
627.95	2.26
628.28	-14.20
628.62	-34.54
628.95	-26.47
629.28	-11.62
629.61	1.61
629.95	8.07
630.28	-10.01
630.61	-11.94
630.94	-11.30
631.27	0.32
631.60	-5.81
631.94	0.00
632.27	-0.97
632.60	5.49
632.93	19.69
633.26	35.83
633.59	26.15
633.93	16.79
634.26	4.20
634.59	9.36
634.92	11.30
635.25	-9.68
635.58	-25.18
635.91	-25.50
636.24	-13.88
636.58	-2.58
636.91	-7.10
637.24	-13.24
637.57	-2.26
637.90	5.49
638.23	0.97
638.56	-7.10
638.89	-11.94
639.22	-12.59
639.55	8.39
639.88	6.78
640.22	8.39
640.55	19.05
640.88	6.13
641.21	15.17
641.54	9.68
641.87	-19.69
642.20	-1.61
642.53	-5.81
642.86	-4.84
643.19	-6.13
643.52	-9.36
643.85	10.98
644.18	20.02
644.51	15.17
644.84	11.30
645.17	11.30
645.50	17.76
645.83	5.17
646.16	3.87
646.49	6.13
646.82	-17.43
647.15	-21.95
647.48	-29.38
647.81	-21.63
648.14	-29.38
648.47	-33.90
648.80	-23.24
649.13	-6.46
649.46	-3.23
649.79	1.94
650.11	10.01
650.44	24.86
650.77	16.79
651.10	15.17
651.43	1.61
651.76	-2.91
652.09	-10.01
652.42	-19.69
652.75	-29.38
653.08	-37.45
653.41	-29.05
653.73	-19.37
654.06	-9.36
654.39	-0.97
654.72	-7.43
655.05	-2.26
655.38	1.29
655.71	-15.82
656.04	-7.10
656.36	-9.04
656.69	7.43
657.02	18.72
657.35	16.79
657.68	33.90
658.01	36.80
658.33	27.44
658.66	29.05
658.99	10.33
659.32	-13.88
659.65	-25.18
659.97	-44.23
660.30	-42.94
660.63	-37.13
660.96	-38.42
661.29	-24.86
661.61	1.61
661.94	34.54
662.27	28.41
662.60	15.50
662.92	5.81
663.25	10.01
663.58	-9.04
663.91	-12.59
664.23	-17.43
664.56	-17.76
664.89	-11.62
665.22	7.10
665.54	0.00
665.87	18.72
666.20	16.79
666.53	5.81
666.85	30.35
667.18	41.65
667.51	29.70
667.83	44.87
668.16	31.64
668.49	37.77
668.81	34.87
669.14	41.65
669.47	40.03
669.79	28.41
670.12	27.12
670.45	9.68
670.77	9.36
671.10	8.39
671.43	-9.36
671.75	-17.43
672.08	-18.08
672.41	-34.87
672.73	-19.05
673.06	-15.17
673.39	-21.95
673.71	-11.30
674.04	-8.07
674.36	6.13
674.69	14.20
675.02	29.38
675.34	15.50
675.67	22.92
675.99	13.88
676.32	1.61
676.64	-22.28
676.97	-27.12
677.30	-45.84
677.62	-39.71
677.95	-35.19
678.27	-38.42
678.60	-32.93
678.92	-18.08
679.25	-17.76
679.57	-8.39
679.90	-1.29
680.22	-9.04
680.55	-4.52
680.88	11.94
681.20	24.54
681.53	17.11
681.85	2.91
682.18	-3.87
682.50	16.14
682.83	39.06
683.15	32.28
683.47	19.05
683.80	35.19
684.12	40.03
684.45	40.68
684.77	10.98
685.10	-3.55
685.42	-1.94
685.75	6.13
686.07	4.52
686.40	-1.61
686.72	-10.33
687.04	10.01
687.37	8.39
687.69	3.55
688.02	-7.43
688.34	-7.43
688.67	10.98
688.99	-4.20
689.31	-11.30
689.64	-18.72
689.96	-21.31
690.28	-18.08
690.61	-20.34
690.93	-16.79
691.26	10.33
691.58	11.94
691.90	20.02
692.23	27.44
692.55	30.02
692.87	16.46
693.20	14.53
693.52	20.98
693.84	30.02
694.17	31.96
694.49	22.60
694.81	18.72
695.14	41.00
695.46	37.45
695.78	18.40
696.11	21.31
696.43	12.27
696.75	27.44
697.08	51.65
697.40	52.62
697.72	60.05
698.04	61.02
698.37	51.01
698.69	49.39
699.01	37.13
699.33	26.15
699.66	15.50
699.98	10.98
700.30	8.39
700.62	5.49
700.95	3.87
701.27	8.72
701.59	19.37
701.91	21.63
702.24	1.61
702.56	16.79
702.88	12.91
703.20	16.14
703.52	18.08
703.85	-1.61
704.17	1.29
704.49	17.76
704.81	14.85
705.13	24.54
705.45	38.74
705.78	27.12
706.10	27.12
706.42	37.13
706.74	37.45
707.06	39.71
707.38	27.12
707.71	7.75
708.03	26.15
708.35	29.70
708.67	13.56
708.99	8.72
709.31	8.07
709.63	16.79
709.95	28.41
710.27	11.62
710.60	2.26
710.92	8.39
711.24	22.28
711.56	22.60
711.88	26.47
712.20	20.66
712.52	22.92
712.84	24.54
713.16	4.20
713.48	-11.94
713.80	-13.56
714.12	-10.98
714.44	-15.50
714.76	-31.31
715.08	-14.53
715.40	7.43
715.72	5.81
716.04	0.00
716.36	-5.81
716.68	-1.29
717.00	32.28
717.32	33.90
717.64	26.80
717.96	30.67
718.28	41.32
718.60	43.26
718.92	43.91
719.24	40.68
719.56	23.24
719.88	20.34
720.20	31.31
720.52	23.57
720.84	17.76
721.16	21.31
721.48	0.32
721.80	13.24
722.12	7.10
722.44	12.59
722.76	9.04
723.08	14.53
723.40	10.65
723.72	20.66
724.03	28.09
724.35	13.56
724.67	-0.32
724.99	-10.01
725.31	-18.08
725.63	-17.76
725.95	-13.56
726.27	-20.02
726.58	-2.91
726.90	-3.55
727.22	-9.04
727.54	-14.85
727.86	-7.75
728.18	-13.56
728.50	-27.76
728.81	-23.57
729.13	-20.66
729.45	-6.78
729.77	-0.65
730.09	-9.68
730.40	-7.43
730.72	4.84
731.04	-0.97
731.36	-0.32
731.68	9.04
731.99	6.46
732.31	7.43
732.63	13.88
732.95	7.43
733.27	7.43
733.58	6.78
733.90	-1.61
734.22	4.20
734.54	-3.87
734.85	-5.17
735.17	-7.43
735.49	-5.81
735.80	-7.43
736.12	-2.26
736.44	0.97
736.76	-7.75
737.07	-19.69
737.39	-30.35
737.71	-27.76
738.02	-17.11
738.34	-15.50
738.66	-15.82
738.97	-4.20
739.29	16.14
739.61	11.62
739.93	22.28
740.24	16.14
740.56	0.97
740.87	9.36
741.19	12.59
741.51	-15.82
741.82	-8.39
742.14	-10.98
742.46	-5.49
742.77	-1.29
743.09	-9.36
743.41	-0.00
743.72	24.21
744.04	40.03
744.35	47.46
744.67	40.03
744.99	38.09
745.30	34.87
745.62	14.85
745.93	10.33
746.25	18.40
746.56	-6.13
746.88	-18.72
747.20	-11.94
747.51	-17.76
747.83	-11.30
748.14	-10.65
748.46	-23.24
748.77	-1.94
749.09	-8.39
749.40	-4.20
749.72	6.13
750.03	12.27
750.35	3.23
750.66	-17.76
750.98	-33.25
751.29	-16.79
751.61	-13.24
751.92	-13.56
752.24	-9.36
752.55	-3.55
752.87	16.79
753.18	19.69
753.50	23.57
753.81	26.15
754.13	9.04
754.44	2.58
754.76	-3.55
755.07	-2.91
755.38	11.30
755.70	-1.61
756.01	-29.38
756.33	-10.33
756.64	-6.13
756.95	7.75
757.27	7.43
757.58	-0.00
757.90	8.39
758.21	27.76
758.52	33.57
758.84	27.76
759.15	11.94
759.47	24.86
759.78	16.14
760.09	17.11
760.41	15.82
760.72	13.88
761.03	27.76
761.35	34.87
761.66	21.31
761.97	17.76
762.29	22.28
762.60	12.59
762.91	6.13
763.23	0.00
763.54	-7.75
763.85	-13.56
764.17	-15.50
764.48	-18.40
764.79	-13.88
765.10	-13.56
765.42	-24.86
765.73	-23.89
766.04	-10.33
766.36	-3.87
766.67	-8.72
766.98	-1.61
767.29	-13.88
767.61	-11.62
767.92	-6.46
768.23	-15.82
768.54	-7.75
768.86	1.29
769.17	0.00
769.48	8.07
769.79	13.88
770.10	23.89
770.42	24.86
770.73	20.98
771.04	9.68
771.35	18.08
771.66	14.20
771.98	8.39
772.29	-10.33
772.60	-5.17
772.91	-9.36
773.22	-15.17
773.53	-23.89
773.85	-17.43
774.16	-9.04
774.47	-7.10
774.78	-6.46
775.09	-2.58
775.40	6.13
775.71	9.04
776.02	8.39
776.34	9.04
776.65	21.31
776.96	11.62
777.27	3.55
777.58	4.84
777.89	8.39
778.20	6.78
778.51	5.17
778.82	-3.55
779.13	-2.58
779.44	-2.91
779.75	9.04
780.06	-0.32
780.38	-4.84
780.69	-20.66
781.00	-22.28
781.31	-23.57
781.62	-0.32
781.93	-8.39
782.24	0.32
782.55	3.87
782.86	12.91
783.17	16.14
783.48	9.04
783.79	19.69
784.10	32.61
784.41	29.70
784.72	31.64
785.03	36.80
785.34	43.26
785.65	54.24
785.96	29.05
786.27	4.84
786.57	0.32
786.88	2.91
787.19	-7.43
787.50	-13.56
787.81	-17.43
788.12	-26.80
788.43	-20.34
788.74	-10.65
789.05	-11.62
789.36	7.10
789.67	17.11
789.98	23.89
790.29	25.83
790.59	31.64
790.90	15.82
791.21	2.91
791.52	-16.79
791.83	-19.05
792.14	-32.28
792.45	-48.42
792.75	-58.43
793.06	-50.04
793.37	-40.68
793.68	-34.54
793.99	-39.39
794.30	-34.22
794.60	-11.94
794.91	-11.30
795.22	-8.39
795.53	-9.04
795.84	-15.50
796.15	-13.56
796.45	-7.43
796.76	-15.82
797.07	-18.72
797.38	-18.40
797.68	-26.47
797.99	-25.18
798.30	-29.70
798.61	-33.25
798.91	-24.21
799.22	-10.01
799.53	-21.31
799.84	-5.81
800.14	-6.78
800.45	-3.23
800.76	-3.87
801.07	-4.20
801.37	-12.91
801.68	-16.14
801.99	-8.39
802.29	12.27
802.60	9.68
802.91	10.65
803.22	7.43
803.52	4.84
803.83	11.30
804.14	3.55
804.44	-11.94
804.75	-11.94
805.06	-10.01
805.36	14.53
805.67	22.92
805.97	33.57
806.28	23.89
806.59	39.71
806.89	37.45
807.20	45.52
807.51	11.62
807.81	17.43
808.12	17.76
808.42	33.90
808.73	22.28
809.04	29.05
809.34	40.35
809.65	32.61
809.95	23.89
810.26	12.59
810.56	8.07
810.87	21.63
811.18	20.98
811.48	-13.56
811.79	12.91
812.09	13.88
812.40	8.72
812.70	1.29
813.01	-14.85
813.31	-17.11
813.62	-3.87
813.92	-5.49
814.23	-9.36
814.53	-14.20
814.84	-12.91
815.14	1.61
815.45	6.78
815.75	29.70
816.06	20.34
816.36	14.20
816.67	21.63
816.97	18.72
817.28	3.55
817.58	-5.49
817.89	-30.02
818.19	-22.92
818.49	-30.67
818.80	-22.60
819.10	-11.94
819.41	-8.39
819.71	-12.59
820.01	-7.10
820.32	1.29
820.62	22.28
820.93	18.72
821.23	10.01
821.53	7.10
821.84	8.72
822.14	19.69
822.45	11.94
822.75	8.72
823.05	8.07
823.36	-8.39
823.66	-6.78
823.96	-16.14
824.27	-30.67
824.57	-20.02
824.87	-11.62
825.18	1.94
825.48	26.47
825.78	23.24
826.09	33.90
826.39	20.98
826.69	4.52
827.00	-4.20
827.30	-9.04
827.60	-19.69
827.90	-26.47
828.21	-21.31
828.51	-5.17
828.81	11.30
829.11	7.10
829.42	13.88
829.72	19.05
830.02	15.17
830.32	16.79
830.63	4.52
830.93	-6.78
831.23	-15.50
831.53	-30.35
831.84	-30.67
832.14	-2.26
832.44	-7.10
832.74	13.88
833.04	14.85
833.35	31.31
833.65	23.57
833.95	34.54
834.25	7.75
834.55	6.13
834.85	1.94
835.16	9.68
835.46	1.94
835.76	18.40
836.06	10.33
836.36	10.33
836.66	7.10
836.96	3.87
837.26	-10.01
837.57	-0.32
837.87	-4.84
838.17	-1.94
838.47	18.72
838.77	36.16
839.07	32.61
839.37	28.09
839.67	18.40
839.97	20.66
840.27	11.94
840.57	3.23
840.88	-8.39
841.18	-7.10
841.48	6.46
841.78	11.94
842.08	7.10
842.38	-6.13
842.68	-15.17
842.98	-10.98
843.28	-20.98
843.58	-19.69
843.88	-26.15
844.18	-30.67
844.48	-18.08
844.78	-6.46
845.08	10.98
845.38	18.08
845.68	10.33
845.98	-3.55
846.28	2.91
846.58	0.32
846.88	-2.58
847.18	-24.21
847.48	-16.14
847.78	-6.13
848.07	10.65
848.37	10.98
848.67	22.28
848.97	16.79
849.27	21.95
849.57	10.33
849.87	14.20
850.17	12.27
850.47	0.97
850.77	-11.62
851.07	-6.46
851.36	-25.18
851.66	-20.02
851.96	-32.61
852.26	-31.64
852.56	-28.09
852.86	-22.92
853.16	-17.43
853.45	-1.29
853.75	0.65
854.05	-1.94
854.35	-6.46
854.65	1.94
854.95	-8.39
855.24	-20.34
855.54	-24.54
855.84	-25.83
856.14	-7.10
856.44	-5.49
856.73	-4.20
857.03	0.65
857.33	22.28
857.63	18.08
857.93	13.88
858.22	2.26
858.52	8.72
858.82	11.30
859.12	15.82
859.41	8.07
859.71	10.65
860.01	19.05
860.30	10.98
860.60	2.26
860.90	6.13
861.20	1.94
861.49	-3.87
861.79	-10.65
862.09	-14.85
862.38	-3.55
862.68	12.27
862.98	20.02
863.27	22.92
863.57	17.11
863.87	29.70
864.16	49.07
864.46	50.04
864.76	36.80
865.05	13.56
865.35	20.02
865.65	33.90
865.94	24.54
866.24	2.58
866.54	4.20
866.83	5.49
867.13	1.29
867.42	-3.87
867.72	-10.65
868.02	-5.17
868.31	-10.01
868.61	-18.08
868.90	-2.91
869.20	0.65
869.49	3.55
869.79	7.10
870.08	24.21
870.38	21.63
870.68	23.89
870.97	25.83
871.27	31.31
871.56	50.68
871.86	52.94
872.15	37.13
872.45	42.61
872.74	33.57
873.04	25.18
873.33	30.67
873.63	9.68
873.92	-11.62
874.22	-3.87
874.51	1.29
874.81	10.33
875.10	-0.65
875.40	0.65
875.69	-5.17
875.98	2.58
876.28	-4.52
876.57	-12.27
876.87	-36.16
877.16	-35.19
877.46	-41.00
877.75	-36.48
878.04	-29.38
878.34	-39.71
878.63	-31.96
878.93	-10.65
879.22	0.32
879.51	7.10
879.81	15.50
880.10	22.60
880.40	30.35
880.69	27.76
880.98	35.51
881.28	26.15
881.57	-6.13
881.86	-24.21
882.16	-36.80
882.45	-29.05
882.74	-33.90
883.04	-48.10
883.33	-56.17
883.62	-22.92
883.92	-31.64
884.21	-70.05
884.50	58.76
>>>>>End Processed Spectral Data<<<<<
