SpectraSuite Data File
++++++++++++++++++++++++++++++++++++
Date: Thu Mar 23 14:03:51 EDT 2017
User: Administrator
Dark Spectrum Present: Yes
Reference Spectrum Present: No
Number of Sampled Component Spectra: 1
Spectrometers: SB2+H01071
Integration Time (usec): 5000000 (SB2+H01071)
Spectra Averaged: 1 (SB2+H01071)
Boxcar Smoothing: 3 (SB2+H01071)
Correct for Electrical Dark: No (SB2+H01071)
Strobe/Lamp Enabled: No (SB2+H01071)
Correct for Detector Non-linearity: No (SB2+H01071)
Correct for Stray Light: No (SB2+H01071)
Number of Pixels in Processed Spectrum: 2048
>>>>>Begin Processed Spectral Data<<<<<
191.06	13.56
191.43	13.56
191.81	13.56
192.19	17.43
192.56	14.85
192.94	6.46
193.31	1.29
193.69	-8.72
194.07	-3.87
194.44	-4.20
194.82	-20.98
195.19	-21.31
195.57	-14.53
195.95	-12.91
196.32	-18.40
196.70	-15.82
197.07	-15.50
197.45	-8.39
197.83	-1.61
198.20	-7.75
198.58	-3.23
198.95	3.87
199.33	0.65
199.70	-6.13
200.08	12.91
200.46	0.97
200.83	18.40
201.21	-5.81
201.58	-6.46
201.96	-12.27
202.33	-5.17
202.71	-24.86
203.09	-26.80
203.46	-45.84
203.84	-34.22
204.21	-30.35
204.59	-34.54
204.96	-30.02
205.34	-11.30
205.71	7.43
206.09	6.46
206.46	10.33
206.84	10.01
207.21	15.82
207.59	7.43
207.96	-7.43
208.34	-14.53
208.71	6.78
209.09	15.17
209.46	14.53
209.84	10.98
210.21	25.83
210.59	43.58
210.96	43.26
211.34	13.56
211.71	21.63
212.09	8.07
212.46	13.56
212.84	15.82
213.21	1.29
213.59	5.49
213.96	20.98
214.34	16.46
214.71	24.54
215.08	21.31
215.46	-6.46
215.83	-0.65
216.21	-4.52
216.58	1.61
216.96	-16.46
217.33	-12.91
217.70	-9.68
218.08	0.00
218.45	0.65
218.83	22.60
219.20	24.86
219.58	33.25
219.95	30.02
220.32	35.51
220.70	27.44
221.07	23.89
221.45	-9.68
221.82	-19.37
222.19	-21.63
222.57	-10.65
222.94	-13.24
223.32	2.58
223.69	-3.55
224.06	2.26
224.44	12.91
224.81	29.05
225.18	36.80
225.56	25.50
225.93	18.08
226.31	19.05
226.68	8.39
227.05	-1.94
227.43	-31.96
227.80	-56.50
228.17	-43.58
228.55	-30.02
228.92	-27.12
229.29	-12.91
229.67	-6.13
230.04	26.80
230.41	31.64
230.79	25.18
231.16	22.60
231.53	17.76
231.91	14.53
232.28	-4.84
232.65	-22.92
233.03	-19.37
233.40	-45.20
233.77	-55.85
234.15	-44.55
234.52	-35.19
234.89	-17.43
235.26	-9.36
235.64	-8.39
236.01	14.20
236.38	20.02
236.76	14.53
237.13	4.52
237.50	-5.49
237.87	-17.76
238.25	-20.98
238.62	-31.31
238.99	-37.13
239.36	-32.61
239.74	-43.26
240.11	-48.75
240.48	-29.70
240.85	-23.89
241.23	-14.53
241.60	4.20
241.97	15.17
242.34	39.71
242.72	53.91
243.09	49.39
243.46	36.16
243.83	23.57
244.20	15.82
244.58	5.49
244.95	-4.84
245.32	-20.66
245.69	-32.28
246.07	-13.88
246.44	0.32
246.81	-13.56
247.18	-17.11
247.55	-22.92
247.92	-6.13
248.30	5.49
248.67	-2.91
249.04	-12.91
249.41	-11.62
249.78	-20.66
250.16	-24.54
250.53	-20.98
250.90	-27.76
251.27	-36.48
251.64	-27.12
252.01	-30.02
252.39	-17.43
252.76	-17.76
253.13	-23.89
253.50	-24.54
253.87	-19.37
254.24	-12.91
254.61	1.94
254.98	8.72
255.36	25.18
255.73	33.90
256.10	43.26
256.47	44.23
256.84	32.93
257.21	19.37
257.58	4.84
257.95	-0.32
258.33	-20.34
258.70	-28.09
259.07	-21.95
259.44	-11.94
259.81	7.43
260.18	9.36
260.55	10.33
260.92	27.12
261.29	21.63
261.66	9.68
262.03	14.53
262.40	-11.94
262.77	-6.46
263.15	-4.52
263.52	-11.30
263.89	3.55
264.26	13.56
264.63	13.56
265.00	21.95
265.37	23.89
265.74	27.76
266.11	43.58
266.48	20.34
266.85	13.24
267.22	6.46
267.59	13.56
267.96	13.24
268.33	6.46
268.70	-2.26
269.07	9.04
269.44	7.43
269.81	5.17
270.18	10.01
270.55	-2.58
270.92	-4.84
271.29	-5.17
271.66	-16.14
272.03	-17.76
272.40	-12.91
272.77	-15.50
273.14	-29.70
273.51	-33.57
273.88	-34.22
274.25	-15.17
274.62	-17.11
274.99	-22.92
275.36	-14.20
275.73	6.46
276.10	7.75
276.47	0.65
276.84	-3.23
277.21	-4.20
277.58	-20.98
277.94	-39.06
278.31	-43.58
278.68	-37.13
279.05	-46.17
279.42	-38.74
279.79	-39.39
280.16	-11.94
280.53	-0.97
280.90	-12.27
281.27	-14.20
281.64	-2.58
282.01	-10.65
282.37	0.00
282.74	-13.56
283.11	-10.65
283.48	-1.61
283.85	-3.55
284.22	-0.32
284.59	-8.39
284.96	1.61
285.33	-1.94
285.69	-1.61
286.06	12.27
286.43	6.46
286.80	13.88
287.17	10.98
287.54	15.82
287.91	23.57
288.27	11.62
288.64	-3.87
289.01	-5.49
289.38	-12.59
289.75	6.13
290.12	-13.24
290.48	-0.97
290.85	10.33
291.22	26.47
291.59	26.15
291.96	12.59
292.33	-4.20
292.69	-0.97
293.06	-20.34
293.43	-15.50
293.80	-2.58
294.17	-1.29
294.53	3.55
294.90	10.65
295.27	16.79
295.64	8.07
296.01	7.43
296.37	-5.81
296.74	9.04
297.11	22.92
297.48	37.77
297.84	44.55
298.21	45.84
298.58	38.42
298.95	29.38
299.31	30.02
299.68	23.89
300.05	15.82
300.42	-3.55
300.78	2.26
301.15	-0.32
301.52	3.23
301.89	-7.43
302.25	-1.29
302.62	-12.59
302.99	10.33
303.35	27.76
303.72	25.83
304.09	25.83
304.46	27.76
304.82	23.24
305.19	30.02
305.56	21.63
305.92	13.88
306.29	37.45
306.66	46.81
307.02	57.46
307.39	60.37
307.76	64.57
308.12	73.93
308.49	62.63
308.86	28.73
309.23	23.57
309.59	16.14
309.96	12.59
310.32	9.68
310.69	1.61
311.06	2.91
311.42	14.53
311.79	10.33
312.16	1.29
312.52	-9.36
312.89	-7.10
313.26	-18.08
313.62	-7.43
313.99	-14.53
314.35	-3.87
314.72	-15.17
315.09	-2.26
315.45	4.52
315.82	7.43
316.19	-0.65
316.55	8.72
316.92	8.39
317.28	29.38
317.65	35.19
318.02	19.69
318.38	23.24
318.75	25.83
319.11	19.05
319.48	-4.52
319.84	0.00
320.21	-14.20
320.58	-0.97
320.94	-6.46
321.31	-10.33
321.67	-2.91
322.04	26.15
322.40	20.66
322.77	17.43
323.13	3.87
323.50	-1.29
323.86	5.49
324.23	8.07
324.60	-26.15
324.96	-23.89
325.33	-24.54
325.69	-9.04
326.06	-0.97
326.42	0.97
326.79	-4.84
327.15	12.59
327.52	2.91
327.88	17.11
328.25	5.81
328.61	18.40
328.98	14.53
329.34	-4.20
329.71	-12.91
330.07	-8.07
330.44	-39.71
330.80	-41.97
331.16	-50.36
331.53	-36.48
331.89	-41.32
332.26	-36.80
332.62	-26.80
332.99	-5.81
333.35	-19.37
333.72	-34.87
334.08	-56.17
334.45	-23.89
334.81	-19.37
335.17	-43.26
335.54	-41.97
335.90	-23.57
336.27	-17.43
336.63	-6.46
337.00	-5.49
337.36	-0.97
337.72	7.10
338.09	4.52
338.45	20.02
338.82	29.38
339.18	31.31
339.54	23.89
339.91	16.46
340.27	20.02
340.63	35.19
341.00	14.53
341.36	8.72
341.73	16.79
342.09	18.72
342.45	29.70
342.82	23.24
343.18	33.25
343.54	33.90
343.91	43.58
344.27	33.57
344.63	41.65
345.00	25.18
345.36	15.50
345.72	-2.91
346.09	18.40
346.45	15.82
346.81	14.20
347.18	6.78
347.54	21.31
347.90	40.68
348.27	24.54
348.63	11.62
348.99	19.69
349.36	22.28
349.72	19.37
350.08	17.43
350.45	15.82
350.81	30.35
351.17	18.72
351.53	-12.27
351.90	-21.95
352.26	-25.50
352.62	-45.84
352.98	-38.74
353.35	-40.03
353.71	-37.45
354.07	-18.72
354.44	-7.75
354.80	-4.52
355.16	16.46
355.52	9.04
355.88	4.20
356.25	11.94
356.61	23.57
356.97	24.86
357.33	34.54
357.70	30.99
358.06	29.05
358.42	22.60
358.78	17.11
359.15	22.92
359.51	17.43
359.87	3.87
360.23	6.78
360.59	13.56
360.95	29.70
361.32	20.02
361.68	3.55
362.04	-5.17
362.40	4.20
362.76	6.46
363.13	16.14
363.49	13.24
363.85	12.59
364.21	11.30
364.57	21.95
364.93	11.30
365.30	16.79
365.66	-4.20
366.02	0.65
366.38	22.60
366.74	20.66
367.10	19.69
367.46	27.12
367.83	12.27
368.19	20.98
368.55	16.14
368.91	2.91
369.27	5.17
369.63	-1.29
369.99	12.91
370.35	19.05
370.71	18.08
371.08	4.52
371.44	0.97
371.80	7.75
372.16	14.53
372.52	-11.62
372.88	-11.62
373.24	-11.62
373.60	-4.84
373.96	-2.91
374.32	9.68
374.68	12.91
375.04	25.83
375.40	30.99
375.76	19.37
376.13	20.02
376.49	12.59
376.85	-8.72
377.21	-14.20
377.57	-14.85
377.93	-26.15
378.29	-10.65
378.65	-10.01
379.01	-18.08
379.37	-20.34
379.73	-23.89
380.09	-24.86
380.45	-32.61
380.81	-40.35
381.17	-40.35
381.53	-21.95
381.89	-30.35
382.25	-42.61
382.61	-27.12
382.97	-10.33
383.33	-1.29
383.69	3.87
384.05	-0.97
384.41	-12.27
384.77	4.20
385.13	-8.39
385.49	-12.59
385.85	-23.24
386.20	-28.41
386.56	-20.98
386.92	-10.33
387.28	-6.78
387.64	-11.62
388.00	-25.18
388.36	-16.14
388.72	-9.04
389.08	-15.17
389.44	-4.20
389.80	-8.07
390.16	-6.13
390.52	11.30
390.88	7.10
391.23	-1.94
391.59	-6.13
391.95	-19.69
392.31	-14.53
392.67	-15.82
393.03	-29.38
393.39	-37.45
393.75	-23.89
394.11	-4.52
394.46	16.79
394.82	11.94
395.18	4.52
395.54	26.15
395.90	24.54
396.26	9.04
396.62	-7.43
396.97	-13.88
397.33	-18.72
397.69	-14.53
398.05	-41.97
398.41	-42.29
398.77	-29.05
399.12	-32.28
399.48	-36.48
399.84	-27.44
400.20	-18.08
400.56	-5.81
400.91	7.75
401.27	-13.24
401.63	-0.65
401.99	8.72
402.35	12.27
402.70	5.17
403.06	15.82
403.42	2.58
403.78	14.20
404.14	5.81
404.49	-4.20
404.85	-10.01
405.21	-3.55
405.57	-3.87
405.92	-9.36
406.28	5.17
406.64	-3.87
407.00	0.97
407.35	3.55
407.71	-10.98
408.07	-15.17
408.43	13.56
408.78	0.65
409.14	21.31
409.50	22.92
409.85	17.11
410.21	30.67
410.57	17.43
410.93	7.75
411.28	11.62
411.64	9.36
412.00	12.59
412.35	6.13
412.71	0.65
413.07	-2.91
413.42	-20.66
413.78	-22.60
414.14	-33.90
414.49	-51.65
414.85	-57.79
415.21	-61.02
415.56	-52.94
415.92	-36.80
416.28	-39.39
416.63	-22.92
416.99	-3.55
417.35	14.20
417.70	7.75
418.06	15.17
418.42	1.94
418.77	20.98
419.13	13.56
419.48	-0.97
419.84	-10.98
420.20	-9.68
420.55	-5.49
420.91	4.20
421.27	-11.94
421.62	-18.08
421.98	-11.62
422.33	-16.46
422.69	-16.46
423.05	-21.63
423.40	-13.24
423.76	-24.54
424.11	-20.02
424.47	-25.18
424.82	-30.67
425.18	-28.09
425.54	-30.02
425.89	-26.47
426.25	-3.55
426.60	-5.17
426.96	-6.78
427.31	-5.17
427.67	6.13
428.02	-7.10
428.38	-16.46
428.73	-17.11
429.09	-10.65
429.44	5.49
429.80	12.91
430.15	17.11
430.51	33.90
430.86	34.22
431.22	22.60
431.57	11.94
431.93	10.01
432.28	13.24
432.64	7.10
432.99	9.04
433.35	0.97
433.70	-0.65
434.06	2.58
434.41	-10.01
434.77	0.97
435.12	-6.46
435.48	-22.60
435.83	-13.56
436.19	-4.20
436.54	-1.61
436.89	-10.33
437.25	-24.54
437.60	-16.79
437.96	-9.36
438.31	-8.07
438.67	-26.15
439.02	-34.87
439.37	-31.96
439.73	-20.98
440.08	-35.51
440.44	-44.87
440.79	-44.87
441.15	-35.19
441.50	-29.70
441.85	-14.85
442.21	-19.69
442.56	-15.82
442.91	-3.87
443.27	-2.91
443.62	7.10
443.98	24.21
444.33	6.46
444.68	1.61
445.04	-0.97
445.39	0.65
445.74	-3.23
446.10	-14.85
446.45	-29.70
446.80	-18.08
447.16	-23.89
447.51	-17.76
447.86	-5.81
448.22	-15.17
448.57	-5.81
448.92	-1.94
449.28	-4.52
449.63	2.58
449.98	-1.94
450.34	-8.72
450.69	-8.07
451.04	-11.30
451.40	5.17
451.75	7.10
452.10	3.23
452.45	13.88
452.81	-1.94
453.16	13.88
453.51	-2.91
453.86	-25.50
454.22	-39.39
454.57	-31.31
454.92	-44.23
455.27	-44.55
455.63	-55.85
455.98	-44.23
456.33	-43.58
456.68	-26.15
457.04	-25.50
457.39	-14.20
457.74	-1.61
458.09	-7.43
458.45	4.52
458.80	7.10
459.15	22.60
459.50	18.40
459.85	23.89
460.21	21.63
460.56	28.41
460.91	14.53
461.26	21.63
461.61	2.91
461.97	6.78
462.32	-1.29
462.67	-3.23
463.02	-5.49
463.37	-13.24
463.72	-29.38
464.08	-29.38
464.43	-24.86
464.78	-16.14
465.13	-7.75
465.48	-7.43
465.83	12.27
466.18	28.41
466.54	41.65
466.89	35.19
467.24	25.18
467.59	18.08
467.94	10.65
468.29	0.97
468.64	4.84
468.99	-7.10
469.34	-19.69
469.70	-20.98
470.05	-36.16
470.40	-12.59
470.75	3.55
471.10	-21.31
471.45	-16.46
471.80	16.14
472.15	20.66
472.50	27.76
472.85	10.65
473.20	-1.94
473.55	21.63
473.90	18.40
474.25	0.97
474.61	-10.33
474.96	-10.01
475.31	-0.97
475.66	7.43
476.01	-11.30
476.36	-12.27
476.71	-2.91
477.06	9.68
477.41	21.95
477.76	33.57
478.11	29.70
478.46	32.61
478.81	29.38
479.16	18.72
479.51	16.79
479.86	20.02
480.21	8.39
480.56	1.94
480.91	5.49
481.26	6.13
481.61	1.29
481.96	-4.20
482.31	-13.24
482.66	-20.98
483.00	-19.05
483.35	3.23
483.70	15.82
484.05	36.80
484.40	41.97
484.75	49.39
485.10	46.17
485.45	44.23
485.80	34.22
486.15	50.04
486.50	40.03
486.85	36.80
487.20	30.35
487.55	17.76
487.89	12.59
488.24	2.91
488.59	-25.83
488.94	-32.93
489.29	-34.22
489.64	-18.72
489.99	-4.84
490.34	1.94
490.68	1.61
491.03	10.01
491.38	14.85
491.73	25.83
492.08	22.28
492.43	22.28
492.78	25.50
493.12	26.15
493.47	32.28
493.82	32.61
494.17	18.08
494.52	12.27
494.87	23.24
495.21	28.73
495.56	37.45
495.91	27.76
496.26	22.92
496.61	40.03
496.95	39.39
497.30	33.25
497.65	7.75
498.00	16.46
498.35	11.62
498.69	10.65
499.04	-0.32
499.39	-3.23
499.74	-16.46
500.08	-4.84
500.43	-20.34
500.78	0.97
501.13	4.20
501.48	10.98
501.82	11.94
502.17	13.88
502.52	5.49
502.86	2.91
503.21	-20.66
503.56	-17.76
503.91	-17.11
504.25	-19.69
504.60	0.97
504.95	16.79
505.30	29.70
505.64	34.22
505.99	32.61
506.34	34.22
506.68	30.02
507.03	18.40
507.38	15.82
507.72	2.58
508.07	9.36
508.42	2.91
508.76	-8.07
509.11	-1.94
509.46	1.94
509.80	12.59
510.15	0.32
510.50	-4.84
510.84	-10.01
511.19	-1.61
511.54	8.72
511.88	0.65
512.23	-8.72
512.57	-10.01
512.92	-19.69
513.27	-4.52
513.61	-26.47
513.96	-43.58
514.31	-30.99
514.65	-26.80
515.00	-11.94
515.34	-20.66
515.69	-36.80
516.03	-19.05
516.38	-6.78
516.73	-15.17
517.07	-20.02
517.42	-10.98
517.76	7.75
518.11	20.98
518.45	17.43
518.80	-2.58
519.15	16.46
519.49	25.50
519.84	14.85
520.18	18.08
520.53	8.39
520.87	5.17
521.22	7.10
521.56	-10.65
521.91	-8.72
522.25	-4.84
522.60	0.32
522.94	-8.07
523.29	-8.72
523.63	-11.94
523.98	-7.10
524.32	-30.67
524.67	-27.12
525.01	-33.57
525.36	-17.43
525.70	-23.89
526.05	-16.14
526.39	-22.60
526.74	-11.30
527.08	-10.98
527.43	-10.65
527.77	-6.78
528.12	4.52
528.46	24.86
528.80	34.87
529.15	34.22
529.49	29.38
529.84	33.90
530.18	36.16
530.53	41.00
530.87	37.13
531.21	37.77
531.56	38.42
531.90	36.16
532.25	16.46
532.59	15.50
532.93	17.43
533.28	15.82
533.62	-2.91
533.97	-8.72
534.31	-4.20
534.65	5.49
535.00	-12.27
535.34	-13.24
535.68	3.87
536.03	18.08
536.37	5.81
536.71	-15.17
537.06	-11.94
537.40	3.87
537.74	-11.94
538.09	-38.09
538.43	-50.68
538.77	-35.83
539.12	-14.20
539.46	-15.50
539.80	-15.17
540.15	-3.23
540.49	-8.07
540.83	-8.72
541.18	0.97
541.52	-10.01
541.86	-16.14
542.20	-22.60
542.55	-11.62
542.89	-0.32
543.23	12.91
543.58	9.36
543.92	20.98
544.26	30.02
544.60	44.87
544.95	20.02
545.29	7.10
545.63	16.46
545.97	3.55
546.32	-8.39
546.66	-15.50
547.00	-23.24
547.34	9.36
547.68	30.67
548.03	28.09
548.37	30.35
548.71	36.16
549.05	61.66
549.39	64.57
549.74	46.17
550.08	35.51
550.42	35.83
550.76	50.68
551.10	70.38
551.45	61.34
551.79	40.03
552.13	34.87
552.47	30.02
552.81	13.88
553.15	3.23
553.50	-20.34
553.84	-35.51
554.18	-24.21
554.52	-4.84
554.86	-2.91
555.20	-3.55
555.54	11.62
555.88	8.72
556.23	18.08
556.57	38.09
556.91	21.31
557.25	26.47
557.59	34.87
557.93	28.41
558.27	36.80
558.61	33.90
558.95	15.17
559.29	17.43
559.64	14.20
559.98	-2.58
560.32	-10.01
560.66	0.65
561.00	-3.55
561.34	-0.65
561.68	-7.43
562.02	-33.57
562.36	-16.14
562.70	-8.72
563.04	-23.57
563.38	-17.11
563.72	-17.76
564.06	-8.07
564.40	19.69
564.74	15.82
565.08	3.87
565.42	8.39
565.76	0.97
566.10	-0.32
566.44	-20.66
566.78	-9.68
567.12	-16.79
567.46	-9.36
567.80	-15.17
568.14	-14.85
568.48	-13.24
568.82	-3.87
569.16	-4.52
569.50	8.39
569.84	8.07
570.18	39.06
570.52	47.13
570.86	43.26
571.20	53.59
571.54	26.47
571.88	37.45
572.22	56.17
572.55	45.84
572.89	33.90
573.23	34.87
573.57	26.47
573.91	33.90
574.25	26.47
574.59	9.04
574.93	-12.91
575.27	-22.92
575.61	-36.80
575.94	-33.90
576.28	-33.25
576.62	-41.32
576.96	-42.94
577.30	-36.48
577.64	-22.60
577.98	-1.94
578.32	-3.87
578.65	-3.55
578.99	-1.61
579.33	-29.05
579.67	-31.64
580.01	-32.93
580.35	-41.65
580.68	-32.93
581.02	-30.99
581.36	-5.49
581.70	16.14
582.04	6.46
582.37	26.47
582.71	30.02
583.05	26.80
583.39	17.43
583.73	-14.20
584.06	-2.58
584.40	24.21
584.74	13.88
585.08	24.86
585.41	18.40
585.75	22.60
586.09	21.63
586.43	14.20
586.76	-1.29
587.10	-22.92
587.44	-29.70
587.78	-36.80
588.11	-25.83
588.45	-24.21
588.79	-23.57
589.13	-24.54
589.46	-20.34
589.80	-28.41
590.14	-9.04
590.47	-15.82
590.81	-15.50
591.15	-14.20
591.48	-15.17
591.82	-13.24
592.16	-6.46
592.50	-10.98
592.83	-15.17
593.17	-13.88
593.51	-15.17
593.84	-1.61
594.18	22.28
594.51	18.08
594.85	14.20
595.19	12.59
595.52	22.28
595.86	27.76
596.20	8.72
596.53	1.94
596.87	8.07
597.21	15.17
597.54	27.44
597.88	16.14
598.21	24.54
598.55	33.25
598.89	36.80
599.22	31.31
599.56	15.17
599.89	16.46
600.23	11.94
600.57	7.10
600.90	15.50
601.24	8.72
601.57	12.59
601.91	20.98
602.24	5.81
602.58	8.39
602.91	8.07
603.25	-8.07
603.58	-17.76
603.92	-34.54
604.26	-29.05
604.59	-14.20
604.93	-14.20
605.26	-33.90
605.60	-28.09
605.93	-20.34
606.27	5.17
606.60	17.11
606.94	14.85
607.27	14.53
607.61	25.83
607.94	30.35
608.28	31.31
608.61	22.60
608.95	14.85
609.28	20.02
609.61	20.02
609.95	17.76
610.28	-1.61
610.62	-7.43
610.95	-20.34
611.29	-42.94
611.62	-62.31
611.96	-60.37
612.29	-72.31
612.62	-46.49
612.96	-17.43
613.29	-19.05
613.63	0.65
613.96	16.46
614.29	24.86
614.63	26.47
614.96	14.85
615.30	-10.01
615.63	2.58
615.96	-4.84
616.30	-25.50
616.63	-35.83
616.97	-13.88
617.30	-6.13
617.63	-11.62
617.97	-6.78
618.30	-12.27
618.63	1.61
618.97	17.11
619.30	12.91
619.63	8.39
619.97	22.28
620.30	-10.01
620.63	-15.50
620.97	-5.81
621.30	-9.04
621.63	-29.38
621.97	-38.42
622.30	-41.97
622.63	-22.28
622.96	-22.60
623.30	-16.46
623.63	-16.79
623.96	-21.95
624.30	-17.43
624.63	-28.09
624.96	-40.68
625.29	-37.13
625.63	-61.02
625.96	-66.18
626.29	-25.50
626.62	-35.83
626.96	-24.86
627.29	-12.27
627.62	-12.91
627.95	11.62
628.28	25.83
628.62	11.62
628.95	26.80
629.28	38.09
629.61	44.87
629.95	58.11
630.28	59.08
630.61	41.00
630.94	32.28
631.27	36.80
631.60	24.54
631.94	23.57
632.27	29.38
632.60	5.17
632.93	13.56
633.26	20.66
633.59	20.02
633.93	24.21
634.26	18.40
634.59	18.40
634.92	23.89
635.25	9.68
635.58	6.78
635.91	-10.65
636.24	-10.98
636.58	8.39
636.91	-3.23
637.24	4.20
637.57	21.31
637.90	19.37
638.23	24.86
638.56	30.35
638.89	21.63
639.22	11.94
639.55	13.24
639.88	0.32
640.22	10.01
640.55	9.68
640.88	-3.23
641.21	-2.26
641.54	7.43
641.87	-4.52
642.20	6.13
642.53	5.17
642.86	10.01
643.19	-2.26
643.52	-10.01
643.85	-13.88
644.18	-2.58
644.51	-4.20
644.84	-14.85
645.17	-7.43
645.50	-14.20
645.83	-25.50
646.16	-14.20
646.49	-31.96
646.82	-43.91
647.15	-43.26
647.48	-52.62
647.81	-32.61
648.14	-10.01
648.47	-19.05
648.80	-8.07
649.13	-8.39
649.46	-14.85
649.79	-19.37
650.11	-13.24
650.44	-22.92
650.77	-22.60
651.10	-0.65
651.43	10.65
651.76	0.32
652.09	16.14
652.42	12.59
652.75	5.17
653.08	14.20
653.41	4.84
653.73	2.58
654.06	12.91
654.39	-4.84
654.72	-28.09
655.05	-22.92
655.38	-28.09
655.71	-49.07
656.04	-34.54
656.36	-29.70
656.69	-22.60
657.02	-7.10
657.35	-10.01
657.68	-12.59
658.01	1.61
658.33	-8.07
658.66	-21.95
658.99	-29.70
659.32	-44.55
659.65	-59.08
659.97	-57.14
660.30	-52.94
660.63	-52.94
660.96	-43.91
661.29	-24.54
661.61	-6.13
661.94	22.92
662.27	20.66
662.60	-3.23
662.92	-14.20
663.25	-9.68
663.58	-29.70
663.91	-17.76
664.23	-12.27
664.56	-8.07
664.89	5.49
665.22	16.79
665.54	20.98
665.87	48.75
666.20	33.57
666.53	14.20
666.85	18.40
667.18	21.31
667.51	27.76
667.83	23.24
668.16	12.59
668.49	10.98
668.81	6.13
669.14	16.46
669.47	28.73
669.79	16.46
670.12	19.05
670.45	3.55
670.77	7.43
671.10	14.20
671.43	-5.17
671.75	-17.76
672.08	-20.66
672.41	-14.53
672.73	5.81
673.06	12.91
673.39	14.20
673.71	18.40
674.04	9.68
674.36	14.53
674.69	15.50
675.02	-3.87
675.34	-24.54
675.67	-32.93
675.99	-27.44
676.32	-30.99
676.64	-51.65
676.97	-58.76
677.30	-52.94
677.62	-45.20
677.95	-37.13
678.27	-44.23
678.60	-28.41
678.92	-16.14
679.25	-15.82
679.57	-4.84
679.90	4.84
680.22	6.13
680.55	10.65
680.88	6.46
681.20	21.31
681.53	11.94
681.85	6.13
682.18	-4.84
682.50	-6.13
682.83	3.87
683.15	3.87
683.47	-1.29
683.80	12.91
684.12	1.61
684.45	16.46
684.77	6.13
685.10	-8.72
685.42	-12.91
685.75	-17.76
686.07	-27.44
686.40	-29.70
686.72	-45.20
687.04	-29.38
687.37	-25.18
687.69	-13.24
688.02	-6.78
688.34	0.65
688.67	3.87
688.99	9.04
689.31	-4.52
689.64	-2.26
689.96	-10.01
690.28	-20.34
690.61	-14.85
690.93	0.65
691.26	-2.58
691.58	-0.97
691.90	0.97
692.23	7.43
692.55	1.29
692.87	1.61
693.20	-2.26
693.52	10.65
693.84	0.97
694.17	4.84
694.49	-6.78
694.81	9.04
695.14	3.23
695.46	4.20
695.78	5.81
696.11	20.66
696.43	10.98
696.75	31.31
697.08	40.03
697.40	37.45
697.72	39.39
698.04	21.95
698.37	15.82
698.69	15.82
699.01	-2.26
699.33	-18.72
699.66	-11.30
699.98	-14.53
700.30	-24.54
700.62	-10.65
700.95	-16.46
701.27	-4.84
701.59	-1.94
701.91	-11.30
702.24	-31.96
702.56	-12.91
702.88	-28.09
703.20	-17.76
703.52	-26.47
703.85	-31.31
704.17	-33.25
704.49	-19.05
704.81	-19.69
705.13	3.23
705.45	10.33
705.78	9.36
706.10	15.82
706.42	29.05
706.74	37.77
707.06	34.87
707.38	12.91
707.71	-14.20
708.03	-10.33
708.35	-8.39
708.67	0.32
708.99	4.52
709.31	8.72
709.63	3.87
709.95	20.02
710.27	12.59
710.60	6.78
710.92	-12.59
711.24	-17.76
711.56	-18.40
711.88	-8.72
712.20	5.81
712.52	9.68
712.84	22.28
713.16	26.47
713.48	27.44
713.80	28.73
714.12	23.24
714.44	17.43
714.76	11.94
715.08	0.65
715.40	7.10
715.72	-0.65
716.04	-4.84
716.36	3.23
716.68	0.97
717.00	11.94
717.32	7.10
717.64	3.55
717.96	0.65
718.28	9.36
718.60	12.59
718.92	0.97
719.24	10.65
719.56	8.07
719.88	-4.20
720.20	16.79
720.52	19.69
720.84	13.56
721.16	23.89
721.48	10.65
721.80	20.66
722.12	18.40
722.44	11.30
722.76	11.30
723.08	15.82
723.40	1.61
723.72	0.32
724.03	2.91
724.35	-0.97
724.67	-11.94
724.99	-18.08
725.31	-10.65
725.63	-0.32
725.95	11.94
726.27	12.91
726.58	19.69
726.90	13.88
727.22	7.43
727.54	-6.78
727.86	6.46
728.18	0.00
728.50	-6.13
728.81	-15.50
729.13	-14.53
729.45	-8.07
729.77	-4.20
730.09	-18.40
730.40	-21.63
730.72	-7.10
731.04	-3.23
731.36	6.78
731.68	-0.65
731.99	-6.78
732.31	-12.27
732.63	-5.81
732.95	-11.94
733.27	6.13
733.58	1.29
733.90	-0.32
734.22	13.56
734.54	23.24
734.85	10.98
735.17	0.97
735.49	-14.53
735.80	-16.79
736.12	2.91
736.44	9.68
736.76	1.94
737.07	0.97
737.39	0.00
737.71	0.97
738.02	-3.23
738.34	-17.43
738.66	-25.83
738.97	-21.95
739.29	-4.52
739.61	-7.43
739.93	1.29
740.24	30.02
740.56	33.25
740.87	37.77
741.19	38.09
741.51	12.59
741.82	17.11
742.14	18.40
742.46	-19.05
742.77	-19.05
743.09	-31.96
743.41	-34.54
743.72	-17.76
744.04	-16.14
744.35	-19.05
744.67	-3.55
744.99	-10.33
745.30	-5.81
745.62	-1.94
745.93	2.91
746.25	7.10
746.56	-6.13
746.88	-16.46
747.20	-8.72
747.51	-10.01
747.83	-15.82
748.14	-19.69
748.46	-23.89
748.77	-2.26
749.09	-0.97
749.40	5.81
749.72	6.13
750.03	2.91
750.35	-8.72
750.66	-15.82
750.98	-31.64
751.29	-17.76
751.61	-20.66
751.92	-3.87
752.24	-3.55
752.55	-0.65
752.87	1.29
753.18	-4.84
753.50	-4.52
753.81	-20.66
754.13	-42.94
754.44	-35.83
754.76	-29.38
755.07	-17.11
755.38	2.91
755.70	-9.04
756.01	-7.10
756.33	6.13
756.64	-3.23
756.95	-5.81
757.27	-18.08
757.58	-19.05
757.90	-19.37
758.21	-13.88
758.52	-14.53
758.84	-15.82
759.15	-11.94
759.47	13.88
759.78	7.43
760.09	20.66
760.41	28.41
760.72	26.47
761.03	46.17
761.35	43.91
761.66	26.15
761.97	15.17
762.29	-6.46
762.60	-25.50
762.91	-20.98
763.23	-33.57
763.54	-41.00
763.85	-46.81
764.17	-23.89
764.48	-3.87
764.79	20.66
765.10	1.61
765.42	2.26
765.73	7.10
766.04	23.89
766.36	22.28
766.67	24.54
766.98	8.07
767.29	10.98
767.61	6.13
767.92	8.07
768.23	-12.91
768.54	-26.80
768.86	-18.08
769.17	-17.43
769.48	-10.65
769.79	2.26
770.10	2.26
770.42	-7.43
770.73	2.26
771.04	-5.17
771.35	-1.61
771.66	21.31
771.98	-0.97
772.29	-18.08
772.60	4.52
772.91	2.58
773.22	-15.17
773.53	-19.37
773.85	-33.25
774.16	-19.37
774.47	13.88
774.78	2.26
775.09	-1.29
775.40	13.88
775.71	27.44
776.02	34.54
776.34	54.88
776.65	46.49
776.96	55.53
777.27	53.27
777.58	58.43
777.89	61.34
778.20	48.10
778.51	24.21
778.82	17.76
779.13	0.65
779.44	1.94
779.75	-3.23
780.06	-17.76
780.38	-26.15
780.69	-31.64
781.00	-30.02
781.31	-25.50
781.62	-19.37
781.93	-16.46
782.24	-10.33
782.55	-23.89
782.86	-25.18
783.17	-31.64
783.48	-20.98
783.79	-16.79
784.10	-20.34
784.41	-29.05
784.72	-9.36
785.03	-1.61
785.34	7.10
785.65	7.10
785.96	-0.97
786.27	-13.56
786.57	-10.65
786.88	-6.46
787.19	-8.07
787.50	-10.33
787.81	-8.39
788.12	-21.63
788.43	-8.07
788.74	5.17
789.05	-2.58
789.36	8.72
789.67	21.95
789.98	19.37
790.29	42.29
790.59	47.46
790.90	29.70
791.21	17.43
791.52	10.33
791.83	2.26
792.14	10.33
792.45	-12.27
792.75	-19.37
793.06	-0.65
793.37	10.65
793.68	8.39
793.99	0.65
794.30	-17.11
794.60	-9.04
794.91	-8.39
795.22	-25.83
795.53	-15.17
795.84	-10.33
796.15	-2.91
796.45	16.46
796.76	26.80
797.07	30.02
797.38	43.26
797.68	30.67
797.99	31.64
798.30	26.15
798.61	13.56
798.91	8.39
799.22	-4.52
799.53	-18.08
799.84	-7.75
800.14	-29.38
800.45	-29.05
800.76	-25.18
801.07	-30.67
801.37	-27.44
801.68	-29.38
801.99	-31.96
802.29	5.17
802.60	3.23
802.91	7.75
803.22	4.20
803.52	0.65
803.83	-0.97
804.14	-7.43
804.44	-21.95
804.75	-17.76
805.06	-33.25
805.36	-9.68
805.67	-4.52
805.97	-6.78
806.28	-13.88
806.59	-7.43
806.89	-14.20
807.20	-2.26
807.51	-36.48
807.81	-28.09
808.12	-20.34
808.42	4.52
808.73	8.07
809.04	2.58
809.34	14.20
809.65	29.38
809.95	14.20
810.26	24.86
810.56	12.91
810.87	9.04
811.18	19.37
811.48	-3.23
811.79	5.17
812.09	19.69
812.40	11.94
812.70	14.53
813.01	11.62
813.31	2.58
813.62	9.04
813.92	12.59
814.23	5.17
814.53	-18.08
814.84	-7.43
815.14	-5.17
815.45	7.43
815.75	18.40
816.06	5.17
816.36	7.10
816.67	40.03
816.97	15.82
817.28	13.56
817.58	7.75
817.89	-4.84
818.19	4.84
818.49	1.94
818.80	-3.23
819.10	7.43
819.41	5.17
819.71	15.82
820.01	16.14
820.32	7.10
820.62	13.88
820.93	10.98
821.23	7.75
821.53	-4.84
821.84	-8.39
822.14	-5.81
822.45	2.91
822.75	4.20
823.05	11.94
823.36	-1.29
823.66	-11.94
823.96	-28.41
824.27	-28.41
824.57	-29.05
824.87	-26.15
825.18	-23.89
825.48	-3.23
825.78	5.17
826.09	8.72
826.39	-10.98
826.69	-25.83
827.00	-37.77
827.30	-32.61
827.60	-46.49
827.90	-38.09
828.21	-32.93
828.51	-2.26
828.81	16.46
829.11	11.62
829.42	2.26
829.72	15.17
830.02	20.98
830.32	24.54
830.63	19.69
830.93	7.43
831.23	9.68
831.53	-10.33
831.84	-20.66
832.14	-6.78
832.44	-10.01
832.74	-10.65
833.04	-2.26
833.35	8.07
833.65	19.69
833.95	19.05
834.25	-3.87
834.55	-0.97
834.85	-9.04
835.16	4.84
835.46	4.52
835.76	7.43
836.06	8.07
836.36	11.30
836.66	-6.13
836.96	-10.33
837.26	-38.42
837.57	-36.16
837.87	-30.35
838.17	-25.18
838.47	-14.20
838.77	0.97
839.07	7.43
839.37	1.94
839.67	-5.49
839.97	-1.29
840.27	-6.46
840.57	-9.36
840.88	-7.75
841.18	-20.66
841.48	3.87
841.78	10.33
842.08	0.32
842.38	1.61
842.68	-17.11
842.98	-5.81
843.28	3.55
843.58	-4.20
843.88	-16.14
844.18	-28.73
844.48	-18.40
844.78	-10.01
845.08	-18.40
845.38	-14.53
845.68	-17.76
845.98	-17.76
846.28	-3.87
846.58	-3.87
846.88	10.65
847.18	12.91
847.48	20.66
847.78	32.61
848.07	37.13
848.37	16.46
848.67	8.39
848.97	4.20
849.27	9.68
849.57	-7.75
849.87	-18.08
850.17	-9.68
850.47	3.87
850.77	-8.07
851.07	-19.37
851.36	-52.94
851.66	-45.20
851.96	-43.26
852.26	-43.91
852.56	-43.26
852.86	-18.40
853.16	-9.36
853.45	5.17
853.75	14.53
854.05	13.56
854.35	14.53
854.65	27.44
854.95	6.78
855.24	-1.94
855.54	3.87
855.84	-1.61
856.14	1.61
856.44	-25.50
856.73	-39.06
857.03	-30.35
857.33	-12.59
857.63	-13.24
857.93	-17.11
858.22	-11.30
858.52	11.94
858.82	22.92
859.12	29.38
859.41	18.72
859.71	10.65
860.01	17.43
860.30	2.91
860.60	-14.20
860.90	-15.50
861.20	-20.02
861.49	-18.72
861.79	-15.17
862.09	-22.60
862.38	-13.24
862.68	5.81
862.98	5.17
863.27	2.26
863.57	-6.46
863.87	-1.29
864.16	9.36
864.46	-8.72
864.76	-27.12
865.05	-26.80
865.35	-9.68
865.65	1.94
865.94	-5.81
866.24	-25.18
866.54	-8.07
866.83	3.23
867.13	-18.72
867.42	-33.90
867.72	-43.58
868.02	-22.28
868.31	-13.88
868.61	-30.35
868.90	-27.76
869.20	-3.55
869.49	-3.55
869.79	-2.26
870.08	-5.49
870.38	-14.53
870.68	4.84
870.97	7.75
871.27	-0.00
871.56	15.17
871.86	25.18
872.15	18.40
872.45	27.44
872.74	14.85
873.04	9.68
873.33	25.50
873.63	9.04
873.92	2.58
874.22	7.75
874.51	16.79
874.81	23.57
875.10	28.41
875.40	21.95
875.69	17.11
875.98	12.91
876.28	0.65
876.57	-13.24
876.87	-17.76
877.16	-20.66
877.46	-31.64
877.75	-25.50
878.04	-30.99
878.34	-31.96
878.63	-23.57
878.93	-27.44
879.22	-30.67
879.51	-22.28
879.81	-14.20
880.10	-12.27
880.40	-13.88
880.69	-20.34
880.98	-4.20
881.28	-11.62
881.57	-38.74
881.86	-61.02
882.16	-56.82
882.45	-39.71
882.74	-40.35
883.04	-41.97
883.33	-41.00
883.62	-8.39
883.92	38.42
884.21	-65.53
884.50	76.83
>>>>>End Processed Spectral Data<<<<<
