SpectraSuite Data File
++++++++++++++++++++++++++++++++++++
Date: Fri Feb 20 12:10:04 EST 2015
User: Administrator
Dark Spectrum Present: Yes
Reference Spectrum Present: No
Number of Sampled Component Spectra: 1
Spectrometers: SB2+H01071
Integration Time (usec): 5000000 (SB2+H01071)
Spectra Averaged: 1 (SB2+H01071)
Boxcar Smoothing: 3 (SB2+H01071)
Correct for Electrical Dark: No (SB2+H01071)
Strobe/Lamp Enabled: Yes (SB2+H01071)
Correct for Detector Non-linearity: No (SB2+H01071)
Correct for Stray Light: No (SB2+H01071)
Number of Pixels in Processed Spectrum: 2048
>>>>>Begin Processed Spectral Data<<<<<
191.06	-22.60
191.43	-22.60
191.81	-22.60
192.19	-12.27
192.56	-8.07
192.94	-13.88
193.31	-18.40
193.69	-29.70
194.07	-24.21
194.44	-10.01
194.82	-20.02
195.19	-23.24
195.57	-23.57
195.95	-15.50
196.32	-2.58
196.70	0.32
197.07	-22.60
197.45	-24.21
197.83	-11.62
198.20	4.84
198.58	-6.78
198.95	-12.91
199.33	-17.43
199.70	-4.84
200.08	-9.04
200.46	-3.87
200.83	-7.10
201.21	10.65
201.58	16.79
201.96	25.18
202.33	36.16
202.71	50.68
203.09	40.03
203.46	27.76
203.84	11.30
204.21	9.04
204.59	10.98
204.96	2.58
205.34	1.94
205.71	4.20
206.09	22.28
206.46	23.89
206.84	17.76
207.21	13.24
207.59	20.02
207.96	4.52
208.34	-5.81
208.71	-15.82
209.09	-16.46
209.46	-29.70
209.84	-13.88
210.21	-24.86
210.59	-3.23
210.96	1.61
211.34	0.65
211.71	10.01
212.09	35.51
212.46	27.44
212.84	27.12
213.21	3.23
213.59	1.29
213.96	12.91
214.34	4.52
214.71	-1.29
215.08	-5.49
215.46	4.84
215.83	14.85
216.21	19.05
216.58	14.53
216.96	27.44
217.33	22.60
217.70	7.43
218.08	-10.65
218.45	-9.68
218.83	-15.17
219.20	-28.09
219.58	-32.28
219.95	-24.21
220.32	0.32
220.70	13.88
221.07	13.56
221.45	12.91
221.82	16.79
222.19	22.28
222.57	1.29
222.94	-12.91
223.32	-20.02
223.69	-11.62
224.06	-4.20
224.44	6.46
224.81	3.55
225.18	12.59
225.56	20.02
225.93	26.15
226.31	24.21
226.68	17.43
227.05	3.87
227.43	-2.91
227.80	7.43
228.17	3.55
228.55	3.55
228.92	1.29
229.29	-1.61
229.67	3.87
230.04	-0.97
230.41	-8.72
230.79	-21.95
231.16	-22.92
231.53	-21.31
231.91	-19.05
232.28	-13.56
232.65	4.20
233.03	3.55
233.40	29.38
233.77	26.47
234.15	32.61
234.52	37.77
234.89	32.61
235.26	21.95
235.64	21.31
236.01	-3.23
236.38	0.32
236.76	2.91
237.13	-2.91
237.50	-6.13
237.87	-4.52
238.25	10.98
238.62	26.80
238.99	37.77
239.36	32.93
239.74	40.68
240.11	46.81
240.48	50.68
240.85	48.75
241.23	43.26
241.60	37.77
241.97	20.02
242.34	-4.52
242.72	-18.08
243.09	-19.05
243.46	-40.35
243.83	-42.29
244.20	-52.94
244.58	-43.26
244.95	-24.54
245.32	-9.36
245.69	-24.21
246.07	-7.10
246.44	-9.36
246.81	-1.94
247.18	-7.75
247.55	8.39
247.92	1.29
248.30	10.65
248.67	3.55
249.04	2.91
249.41	18.72
249.78	28.09
250.16	32.93
250.53	42.94
250.90	39.06
251.27	54.88
251.64	52.62
252.01	42.61
252.39	41.00
252.76	23.89
253.13	10.33
253.50	-0.32
253.87	-6.46
254.24	-5.81
254.61	-12.27
254.98	-16.14
255.36	-17.43
255.73	-10.98
256.10	-0.97
256.47	-5.81
256.84	4.84
257.21	5.81
257.58	12.59
257.95	11.94
258.33	19.37
258.70	17.43
259.07	16.46
259.44	15.82
259.81	4.52
260.18	-6.78
260.55	-2.26
260.92	-15.17
261.29	-5.81
261.66	-15.82
262.03	-19.69
262.40	-8.07
262.77	-2.58
263.15	-19.69
263.52	-22.28
263.89	-26.80
264.26	-23.57
264.63	-31.64
265.00	-39.39
265.37	-35.19
265.74	-23.24
266.11	-24.86
266.48	-26.80
266.85	-28.73
267.22	-30.35
267.59	-28.41
267.96	-19.37
268.33	-14.53
268.70	-5.81
269.07	4.84
269.44	11.30
269.81	18.40
270.18	25.50
270.55	-6.13
270.92	-24.86
271.29	-20.66
271.66	-26.80
272.03	-19.05
272.40	-11.94
272.77	-27.76
273.14	-15.17
273.51	2.58
273.88	-9.68
274.25	-13.88
274.62	-28.09
274.99	-32.93
275.36	-23.57
275.73	-16.14
276.10	-13.88
276.47	5.81
276.84	10.98
277.21	21.95
277.58	17.11
277.94	23.24
278.31	16.14
278.68	14.85
279.05	-4.84
279.42	-12.91
279.79	-20.98
280.16	-18.72
280.53	-17.11
280.90	-29.05
281.27	-36.80
281.64	-22.28
282.01	-15.17
282.37	-11.94
282.74	-6.78
283.11	-11.30
283.48	-2.58
283.85	0.97
284.22	4.20
284.59	7.43
284.96	8.39
285.33	3.55
285.69	3.87
286.06	10.65
286.43	10.33
286.80	15.50
287.17	13.88
287.54	26.80
287.91	29.38
288.27	28.73
288.64	42.94
289.01	62.95
289.38	47.78
289.75	56.50
290.12	51.33
290.48	39.06
290.85	33.57
291.22	3.55
291.59	-33.25
291.96	-30.67
292.33	-41.00
292.69	-54.88
293.06	-35.83
293.43	-31.96
293.80	-21.63
294.17	5.49
294.53	2.26
294.90	-3.23
295.27	2.58
295.64	13.56
296.01	33.25
296.37	46.49
296.74	43.26
297.11	33.57
297.48	28.73
297.84	30.35
298.21	12.91
298.58	-8.07
298.95	-19.69
299.31	-33.90
299.68	-15.82
300.05	-2.58
300.42	7.75
300.78	1.94
301.15	3.87
301.52	-11.30
301.89	9.04
302.25	-4.84
302.62	-13.56
302.99	-27.76
303.35	-43.58
303.72	-58.76
304.09	-41.00
304.46	-52.62
304.82	-40.03
305.19	-18.08
305.56	-26.15
305.92	1.94
306.29	42.94
306.66	54.88
307.02	40.35
307.39	33.25
307.76	29.05
308.12	41.65
308.49	21.31
308.86	-14.20
309.23	-14.53
309.59	-3.23
309.96	-0.32
310.32	-8.39
310.69	-16.14
311.06	6.46
311.42	17.76
311.79	-8.07
312.16	-14.85
312.52	-7.75
312.89	-13.88
313.26	-15.82
313.62	-21.95
313.99	-23.57
314.35	-17.43
314.72	-3.23
315.09	-12.27
315.45	-6.46
315.82	11.62
316.19	10.65
316.55	-7.10
316.92	12.91
317.28	6.46
317.65	-2.26
318.02	-9.36
318.38	-26.15
318.75	-33.90
319.11	-10.98
319.48	-16.14
319.84	-3.55
320.21	3.55
320.58	12.27
320.94	35.83
321.31	29.70
321.67	24.86
322.04	20.02
322.40	8.07
322.77	16.46
323.13	18.72
323.50	17.11
323.86	22.92
324.23	38.42
324.60	38.09
324.96	39.71
325.33	15.17
325.69	3.87
326.06	-11.62
326.42	-13.56
326.79	-31.31
327.15	-34.22
327.52	-35.51
327.88	1.94
328.25	5.81
328.61	14.53
328.98	24.21
329.34	13.56
329.71	10.33
330.07	4.20
330.44	-16.79
330.80	-12.59
331.16	-31.64
331.53	-19.69
331.89	8.72
332.26	30.99
332.62	41.65
332.99	45.20
333.35	44.55
333.72	54.88
334.08	39.06
334.45	6.46
334.81	-1.61
335.17	-11.94
335.54	-6.78
335.90	-11.94
336.27	-22.60
336.63	-17.76
337.00	-5.81
337.36	-12.59
337.72	-13.56
338.09	-20.98
338.45	-11.94
338.82	8.39
339.18	7.10
339.54	13.88
339.91	23.89
340.27	27.12
340.63	24.21
341.00	10.65
341.36	16.79
341.73	-8.39
342.09	-0.65
342.45	-6.46
342.82	4.52
343.18	9.36
343.54	30.02
343.91	15.17
344.27	38.74
344.63	28.09
345.00	31.31
345.36	16.79
345.72	13.56
346.09	-2.58
346.45	13.24
346.81	11.94
347.18	27.76
347.54	37.45
347.90	43.91
348.27	36.48
348.63	33.90
348.99	13.56
349.36	21.95
349.72	4.20
350.08	-21.95
350.45	-32.93
350.81	-21.95
351.17	-14.85
351.53	-14.85
351.90	-26.47
352.26	-23.89
352.62	-4.52
352.98	-6.13
353.35	-9.36
353.71	-16.79
354.07	-3.55
354.44	-10.98
354.80	-4.52
355.16	-5.49
355.52	6.13
355.88	1.29
356.25	0.65
356.61	-12.59
356.97	-16.46
357.33	-29.38
357.70	-26.80
358.06	-28.09
358.42	-34.22
358.78	-47.13
359.15	-48.75
359.51	-38.42
359.87	-42.94
360.23	-49.07
360.59	-52.30
360.95	-34.22
361.32	-19.69
361.68	-4.20
362.04	-31.31
362.40	-14.85
362.76	-25.50
363.13	-24.86
363.49	-33.57
363.85	-15.50
364.21	-37.45
364.57	-4.84
364.93	-13.24
365.30	-1.61
365.66	-3.23
366.02	12.59
366.38	0.65
366.74	15.50
367.10	24.86
367.46	34.22
367.83	25.83
368.19	34.22
368.55	14.85
368.91	-0.32
369.27	1.61
369.63	-1.61
369.99	-19.05
370.35	-12.91
370.71	-5.17
371.08	1.94
371.44	16.79
371.80	21.31
372.16	32.61
372.52	44.87
372.88	42.61
373.24	32.61
373.60	27.44
373.96	19.69
374.32	3.23
374.68	-11.62
375.04	-14.20
375.40	-5.81
375.76	-0.65
376.13	13.88
376.49	29.05
376.85	40.68
377.21	38.74
377.57	47.13
377.93	27.12
378.29	22.92
378.65	29.38
379.01	26.15
379.37	24.21
379.73	11.62
380.09	11.30
380.45	27.44
380.81	21.31
381.17	-3.55
381.53	-1.94
381.89	3.23
382.25	18.72
382.61	3.55
382.97	0.97
383.33	-7.10
383.69	-0.97
384.05	-4.52
384.41	-4.84
384.77	2.91
385.13	21.63
385.49	12.91
385.85	25.83
386.20	46.17
386.56	33.90
386.92	22.28
387.28	3.55
387.64	3.87
388.00	7.75
388.36	3.87
388.72	-10.98
389.08	-20.02
389.44	-31.31
389.80	-36.48
390.16	-47.46
390.52	-55.85
390.88	-56.82
391.23	-58.43
391.59	-42.29
391.95	-19.69
392.31	-20.98
392.67	-30.99
393.03	-11.30
393.39	-15.82
393.75	-4.20
394.11	3.55
394.46	13.88
394.82	35.83
395.18	47.13
395.54	42.94
395.90	58.11
396.26	45.20
396.62	42.94
396.97	33.57
397.33	15.82
397.69	6.46
398.05	-7.10
398.41	-2.91
398.77	-12.59
399.12	-11.30
399.48	-11.30
399.84	-10.65
400.20	-6.13
400.56	0.65
400.91	-28.09
401.27	-25.50
401.63	-19.37
401.99	-22.92
402.35	-16.79
402.70	-24.21
403.06	-33.90
403.42	-20.66
403.78	-2.26
404.14	-17.43
404.49	-23.57
404.85	-24.21
405.21	-13.24
405.57	-2.58
405.92	0.32
406.28	-14.85
406.64	-13.56
407.00	-3.23
407.35	-4.52
407.71	-7.75
408.07	-14.20
408.43	-14.53
408.78	-14.53
409.14	-1.94
409.50	5.81
409.85	8.39
410.21	19.05
410.57	23.57
410.93	18.40
411.28	27.76
411.64	24.54
412.00	14.20
412.35	14.85
412.71	14.53
413.07	12.91
413.42	18.40
413.78	29.70
414.14	23.89
414.49	7.75
414.85	24.54
415.21	28.41
415.56	42.61
415.92	49.72
416.28	40.03
416.63	44.23
416.99	57.79
417.35	41.65
417.70	25.83
418.06	11.62
418.42	16.46
418.77	9.68
419.13	4.84
419.48	9.04
419.84	0.97
420.20	5.49
420.55	9.36
420.91	3.55
421.27	28.09
421.62	37.13
421.98	28.73
422.33	38.74
422.69	47.13
423.05	46.81
423.40	52.30
423.76	32.28
424.11	19.37
424.47	21.63
424.82	32.28
425.18	16.14
425.54	20.34
425.89	-5.17
426.25	-3.55
426.60	-7.75
426.96	-13.24
427.31	-13.56
427.67	-1.29
428.02	4.84
428.38	23.24
428.73	14.85
429.09	21.63
429.44	29.05
429.80	18.40
430.15	13.88
430.51	16.79
430.86	15.17
431.22	23.89
431.57	21.31
431.93	22.60
432.28	18.72
432.64	1.29
432.99	-9.04
433.35	6.46
433.70	-3.23
434.06	-5.49
434.41	-9.04
434.77	0.00
435.12	26.15
435.48	13.88
435.83	3.87
436.19	18.08
436.54	27.12
436.89	29.05
437.25	19.37
437.60	-7.75
437.96	-0.32
438.31	6.46
438.67	-4.52
439.02	-16.79
439.37	-25.18
439.73	-34.54
440.08	-6.13
440.44	-18.08
440.79	-18.08
441.15	-28.09
441.50	-22.60
441.85	-20.34
442.21	-2.58
442.56	-8.72
442.91	-0.00
443.27	-18.08
443.62	-9.36
443.98	-8.72
444.33	-15.50
444.68	-20.98
445.04	-26.15
445.39	-19.37
445.74	-18.08
446.10	-29.38
446.45	-41.00
446.80	-14.85
447.16	-18.08
447.51	-17.11
447.86	-13.56
448.22	-2.26
448.57	-2.26
448.92	-8.07
449.28	-27.76
449.63	-30.02
449.98	-41.32
450.34	-30.35
450.69	-46.49
451.04	-37.77
451.40	-20.34
451.75	-22.28
452.10	-5.49
452.45	10.33
452.81	11.62
453.16	20.98
453.51	26.15
453.86	28.73
454.22	36.48
454.57	13.56
454.92	8.39
455.27	-15.50
455.63	-10.98
455.98	-9.68
456.33	-20.34
456.68	-34.22
457.04	-27.44
457.39	-30.67
457.74	-19.05
458.09	-33.25
458.45	-37.13
458.80	-31.31
459.15	-1.29
459.50	-14.20
459.85	-16.79
460.21	-17.43
460.56	-10.33
460.91	2.58
461.26	3.55
461.61	-31.31
461.97	-17.11
462.32	0.00
462.67	-12.27
463.02	-2.58
463.37	-12.27
463.72	-11.94
464.08	0.32
464.43	-9.04
464.78	-18.08
465.13	-6.78
465.48	-11.94
465.83	-11.30
466.18	-4.52
466.54	3.55
466.89	9.68
467.24	14.53
467.59	18.72
467.94	32.93
468.29	38.42
468.64	29.38
468.99	28.41
469.34	14.53
469.70	11.30
470.05	-7.43
470.40	-27.44
470.75	-39.71
471.10	-35.51
471.45	-50.68
471.80	-36.80
472.15	-52.62
472.50	-45.52
472.85	-37.13
473.20	-41.00
473.55	-46.17
473.90	-41.97
474.25	-41.32
474.61	-24.86
474.96	-20.98
475.31	-15.17
475.66	-1.61
476.01	6.46
476.36	17.76
476.71	35.19
477.06	42.94
477.41	56.50
477.76	47.46
478.11	52.94
478.46	49.07
478.81	44.23
479.16	32.93
479.51	9.36
479.86	-3.55
480.21	8.72
480.56	0.97
480.91	0.00
481.26	2.91
481.61	5.81
481.96	26.15
482.31	19.69
482.66	-3.87
483.00	-0.97
483.35	4.84
483.70	-8.72
484.05	-11.62
484.40	-21.63
484.75	-8.72
485.10	7.75
485.45	-3.23
485.80	-11.94
486.15	-1.29
486.50	-19.37
486.85	-11.94
487.20	-19.69
487.55	-21.31
487.89	-27.76
488.24	-21.95
488.59	-7.10
488.94	0.32
489.29	-12.27
489.64	-18.72
489.99	-33.90
490.34	-27.12
490.68	-13.56
491.03	-18.72
491.38	-3.23
491.73	15.50
492.08	31.31
492.43	42.29
492.78	40.35
493.12	30.67
493.47	18.72
493.82	-1.94
494.17	-1.29
494.52	-8.72
494.87	-17.11
495.21	-24.86
495.56	-13.88
495.91	-10.98
496.26	10.65
496.61	9.04
496.95	11.94
497.30	22.28
497.65	39.39
498.00	20.98
498.35	39.71
498.69	27.44
499.04	16.14
499.39	-1.29
499.74	6.46
500.08	-6.46
500.43	10.33
500.78	-12.27
501.13	-19.37
501.48	-16.46
501.82	-1.94
502.17	-10.65
502.52	-3.55
502.86	-34.87
503.21	-33.25
503.56	-27.12
503.91	-31.31
504.25	-29.05
504.60	-17.76
504.95	-25.18
505.30	4.52
505.64	15.17
505.99	14.20
506.34	16.79
506.68	17.11
507.03	-10.33
507.38	6.46
507.72	1.61
508.07	-2.26
508.42	2.26
508.76	-11.30
509.11	-13.88
509.46	0.97
509.80	-6.78
510.15	-19.05
510.50	-24.86
510.84	-28.41
511.19	-17.11
511.54	-11.94
511.88	-5.81
512.23	7.10
512.57	9.36
512.92	5.17
513.27	5.17
513.61	24.86
513.96	15.50
514.31	12.27
514.65	6.13
515.00	-8.39
515.34	7.10
515.69	7.75
516.03	-11.94
516.38	-17.11
516.73	-36.80
517.07	-50.04
517.42	-28.09
517.76	-30.35
518.11	-29.70
518.45	-23.89
518.80	-18.72
519.15	7.10
519.49	23.89
519.84	35.19
520.18	16.79
520.53	-0.32
520.87	-16.79
521.22	-20.02
521.56	-14.20
521.91	-13.24
522.25	-29.05
522.60	-23.24
522.94	1.61
523.29	18.08
523.63	26.47
523.98	-5.17
524.32	-8.07
524.67	-10.01
525.01	-1.94
525.36	-4.52
525.70	-6.46
526.05	-12.91
526.39	-10.01
526.74	-11.30
527.08	-11.30
527.43	-26.80
527.77	-27.44
528.12	-30.02
528.46	-9.04
528.80	10.01
529.15	6.46
529.49	20.98
529.84	27.76
530.18	20.34
530.53	2.58
530.87	-14.20
531.21	-15.82
531.56	-14.85
531.90	-34.54
532.25	-28.73
532.59	-14.53
532.93	3.23
533.28	11.62
533.62	17.76
533.97	15.17
534.31	19.05
534.65	11.30
535.00	15.50
535.34	12.27
535.68	14.85
536.03	-0.32
536.37	0.65
536.71	14.53
537.06	25.50
537.40	12.91
537.74	16.14
538.09	3.55
538.43	22.92
538.77	28.73
539.12	28.09
539.46	34.22
539.80	30.02
540.15	32.28
540.49	38.74
540.83	26.47
541.18	66.50
541.52	57.79
541.86	51.01
542.20	55.20
542.55	65.21
542.89	73.93
543.23	69.09
543.58	4.84
543.92	5.81
544.26	8.72
544.60	16.79
544.95	19.37
545.29	2.58
545.63	3.23
545.97	20.66
546.32	26.80
546.66	22.92
547.00	34.54
547.34	12.27
547.68	22.60
548.03	25.50
548.37	18.08
548.71	19.69
549.05	7.75
549.39	-2.91
549.74	-2.91
550.08	-5.49
550.42	-8.07
550.76	-12.59
551.10	-31.64
551.45	-39.06
551.79	-53.27
552.13	-50.04
552.47	-53.59
552.81	-48.10
553.15	-24.86
553.50	-13.56
553.84	17.43
554.18	32.93
554.52	40.35
554.86	55.85
555.20	55.85
555.54	48.42
555.88	57.79
556.23	43.26
556.57	50.04
556.91	23.89
557.25	6.78
557.59	-5.81
557.93	-8.39
558.27	-5.49
558.61	-1.61
558.95	-16.14
559.29	10.33
559.64	17.11
559.98	-0.65
560.32	4.84
560.66	-9.36
561.00	-17.76
561.34	-36.48
561.68	-39.71
562.02	-46.17
562.36	-13.56
562.70	-16.14
563.04	-18.08
563.38	-16.79
563.72	2.91
564.06	14.85
564.40	21.63
564.74	6.46
565.08	8.07
565.42	-6.46
565.76	-1.61
566.10	-5.49
566.44	-26.15
566.78	-37.13
567.12	-29.70
567.46	-28.09
567.80	-10.65
568.14	-9.36
568.48	0.00
568.82	23.89
569.16	22.28
569.50	30.02
569.84	22.28
570.18	35.83
570.52	43.91
570.86	44.23
571.20	38.09
571.54	26.47
571.88	27.76
572.22	32.61
572.55	18.40
572.89	22.28
573.23	25.83
573.57	4.20
573.91	28.73
574.25	21.31
574.59	7.10
574.93	-4.20
575.27	-21.95
575.61	-29.05
575.94	-3.55
576.28	-11.94
576.62	-11.94
576.96	-3.23
577.30	11.30
577.64	22.60
577.98	17.43
578.32	12.59
578.65	19.37
578.99	28.09
579.33	36.48
579.67	30.99
580.01	36.16
580.35	29.70
580.68	23.57
581.02	18.40
581.36	15.50
581.70	-5.49
582.04	-8.72
582.37	-22.60
582.71	-26.47
583.05	-30.02
583.39	-24.54
583.73	-35.19
584.06	-36.80
584.40	-17.11
584.74	-8.39
585.08	-11.30
585.41	2.91
585.75	-6.78
586.09	-1.29
586.43	11.62
586.76	-9.36
587.10	-12.59
587.44	-2.91
587.78	-25.50
588.11	-29.05
588.45	-50.68
588.79	-64.57
589.13	-50.04
589.46	-53.91
589.80	-52.30
590.14	-43.58
590.47	-38.09
590.81	-20.98
591.15	-13.88
591.48	-24.54
591.82	-28.09
592.16	-24.21
592.50	-17.11
592.83	-17.11
593.17	-10.01
593.51	-3.23
593.84	4.52
594.18	3.87
594.51	11.94
594.85	13.88
595.19	10.01
595.52	22.60
595.86	25.18
596.20	39.71
596.53	42.94
596.87	38.09
597.21	29.38
597.54	41.65
597.88	28.73
598.21	38.42
598.55	26.47
598.89	29.38
599.22	32.61
599.56	25.83
599.89	27.44
600.23	21.95
600.57	12.59
600.90	14.20
601.24	18.72
601.57	10.33
601.91	9.04
602.24	5.17
602.58	15.82
602.91	1.61
603.25	-11.30
603.58	-22.28
603.92	-20.34
604.26	-2.26
604.59	-4.84
604.93	-10.33
605.26	7.75
605.60	22.92
605.93	33.90
606.27	21.63
606.60	19.05
606.94	24.54
607.27	19.37
607.61	17.76
607.94	16.79
608.28	15.82
608.61	13.24
608.95	4.84
609.28	1.29
609.61	3.23
609.95	5.49
610.28	-6.13
610.62	-20.34
610.95	-6.46
611.29	-7.43
611.62	-26.15
611.96	-25.83
612.29	-26.47
612.62	-21.95
612.96	-16.14
613.29	-16.14
613.63	-12.59
613.96	7.10
614.29	8.72
614.63	10.33
614.96	-1.94
615.30	7.43
615.63	20.34
615.96	6.13
616.30	3.87
616.63	7.10
616.97	21.63
617.30	37.77
617.63	29.70
617.97	11.94
618.30	20.66
618.63	14.53
618.97	9.36
619.30	-16.79
619.63	-25.83
619.97	-16.46
620.30	-4.20
620.63	6.13
620.97	2.58
621.30	6.13
621.63	9.36
621.97	16.46
622.30	12.59
622.63	14.53
622.96	15.17
623.30	21.31
623.63	32.93
623.96	35.83
624.30	37.13
624.63	32.93
624.96	31.31
625.29	16.14
625.63	13.24
625.96	8.39
626.29	2.58
626.62	-7.75
626.96	1.61
627.29	-6.13
627.62	3.87
627.95	8.39
628.28	10.98
628.62	19.37
628.95	4.84
629.28	-14.20
629.61	-2.58
629.95	-8.39
630.28	9.68
630.61	6.46
630.94	-2.58
631.27	16.79
631.60	19.69
631.94	4.52
632.27	15.17
632.60	0.65
632.93	-10.01
633.26	-12.27
633.59	-8.07
633.93	2.58
634.26	6.46
634.59	-0.97
634.92	-8.39
635.25	1.61
635.58	1.61
635.91	-7.75
636.24	-3.87
636.58	14.85
636.91	12.59
637.24	13.56
637.57	7.43
637.90	14.20
638.23	17.76
638.56	17.43
638.89	4.20
639.22	-1.29
639.55	-0.65
639.88	-7.10
640.22	-19.37
640.55	-34.87
640.88	-36.16
641.21	-57.46
641.54	-39.39
641.87	-25.83
642.20	-16.79
642.53	-9.68
642.86	5.81
643.19	7.10
643.52	11.62
643.85	1.94
644.18	-6.46
644.51	-27.44
644.84	-25.18
645.17	-24.54
645.50	-44.55
645.83	-28.73
646.16	-20.98
646.49	-34.54
646.82	-18.08
647.15	-12.27
647.48	-7.10
647.81	5.49
648.14	2.58
648.47	2.91
648.80	23.24
649.13	20.98
649.46	22.92
649.79	18.40
650.11	28.73
650.44	24.54
650.77	-1.94
651.10	-13.88
651.43	-9.68
651.76	-30.35
652.09	-36.80
652.42	-44.55
652.75	-50.36
653.08	-26.47
653.41	-19.37
653.73	-14.85
654.06	5.17
654.39	11.62
654.72	18.40
655.05	26.15
655.38	19.37
655.71	19.37
656.04	16.79
656.36	20.34
656.69	18.08
657.02	9.36
657.35	-8.07
657.68	6.78
658.01	0.32
658.33	-0.65
658.66	-7.75
658.99	-10.33
659.32	-10.98
659.65	15.82
659.97	-15.17
660.30	-14.20
660.63	-13.88
660.96	-10.98
661.29	-8.07
661.61	-18.08
661.94	-30.35
662.27	-12.27
662.60	-3.55
662.92	-16.46
663.25	-16.46
663.58	-19.37
663.91	-19.69
664.23	-23.24
664.56	-13.88
664.89	-10.98
665.22	-2.91
665.54	3.87
665.87	2.26
666.20	10.01
666.53	6.46
666.85	3.55
667.18	-2.58
667.51	10.98
667.83	-10.98
668.16	-0.97
668.49	-1.61
668.81	-0.97
669.14	-3.23
669.47	7.75
669.79	-12.27
670.12	2.91
670.45	-16.14
670.77	-21.31
671.10	-20.34
671.43	-23.24
671.75	-42.29
672.08	-48.10
672.41	-70.38
672.73	-54.24
673.06	-46.49
673.39	-31.96
673.71	-34.87
674.04	-25.50
674.36	-27.12
674.69	-0.65
675.02	-0.32
675.34	0.00
675.67	-7.43
675.99	3.23
676.32	11.30
676.64	17.11
676.97	6.13
677.30	6.78
677.62	15.17
677.95	18.40
678.27	2.26
678.60	-8.07
678.92	-0.32
679.25	2.58
679.57	-5.17
679.90	-3.23
680.22	0.32
680.55	24.21
680.88	6.78
681.20	3.87
681.53	-0.65
681.85	6.46
682.18	0.32
682.50	-11.94
682.83	-31.31
683.15	-19.69
683.47	-16.46
683.80	-27.12
684.12	-26.80
684.45	-31.64
684.77	-14.20
685.10	-11.94
685.42	-28.73
685.75	-33.57
686.07	-27.12
686.40	-35.19
686.72	-32.93
687.04	-37.77
687.37	-38.09
687.69	0.00
688.02	7.43
688.34	15.82
688.67	18.08
688.99	0.97
689.31	-6.46
689.64	6.78
689.96	-7.10
690.28	1.94
690.61	3.23
690.93	16.14
691.26	41.97
691.58	33.25
691.90	13.88
692.23	-5.49
692.55	-10.33
692.87	-1.29
693.20	-21.63
693.52	-38.74
693.84	-35.83
694.17	-27.44
694.49	-10.01
694.81	-5.81
695.14	-10.33
695.46	3.55
695.78	23.57
696.11	24.21
696.43	23.89
696.75	19.37
697.08	0.32
697.40	-13.56
697.72	-26.80
698.04	-38.42
698.37	-22.92
698.69	-23.57
699.01	-22.28
699.33	4.20
699.66	11.62
699.98	25.18
700.30	34.22
700.62	34.87
700.95	32.93
701.27	37.45
701.59	23.57
701.91	23.57
702.24	22.28
702.56	20.98
702.88	20.66
703.20	24.86
703.52	15.50
703.85	12.59
704.17	20.34
704.49	21.63
704.81	15.50
705.13	9.36
705.45	19.69
705.78	31.64
706.10	21.31
706.42	4.20
706.74	15.82
707.06	19.69
707.38	25.50
707.71	5.17
708.03	1.94
708.35	11.94
708.67	10.98
708.99	-9.68
709.31	-15.82
709.63	-24.86
709.95	-25.18
710.27	-30.02
710.60	-27.76
710.92	-13.24
711.24	-8.39
711.56	-11.94
711.88	-12.59
712.20	-10.01
712.52	-2.58
712.84	2.26
713.16	0.00
713.48	-0.97
713.80	-4.52
714.12	-10.98
714.44	-12.91
714.76	-0.65
715.08	-20.34
715.40	-17.76
715.72	-8.07
716.04	-17.43
716.36	-13.56
716.68	-4.52
717.00	-13.88
717.32	0.65
717.64	3.87
717.96	3.87
718.28	15.82
718.60	25.18
718.92	32.61
719.24	13.88
719.56	16.46
719.88	-7.10
720.20	-18.40
720.52	-10.01
720.84	-22.28
721.16	-28.73
721.48	-5.17
721.80	1.61
722.12	21.63
722.44	26.47
722.76	23.89
723.08	13.24
723.40	3.23
723.72	-10.01
724.03	-19.37
724.35	-20.34
724.67	-22.28
724.99	-23.57
725.31	-14.53
725.63	2.91
725.95	-7.75
726.27	-21.95
726.58	-28.41
726.90	-22.60
727.22	-12.27
727.54	-12.59
727.86	-20.66
728.18	-13.24
728.50	-9.36
728.81	0.65
729.13	8.39
729.45	-2.91
729.77	2.58
730.09	8.07
730.40	-1.61
730.72	10.01
731.04	-13.56
731.36	-0.32
731.68	5.17
731.99	2.91
732.31	-14.20
732.63	-12.59
732.95	-18.40
733.27	-11.94
733.58	-20.98
733.90	-26.15
734.22	-29.05
734.54	-8.07
734.85	-9.68
735.17	-0.32
735.49	11.94
735.80	-7.10
736.12	-4.20
736.44	9.68
736.76	-5.81
737.07	21.63
737.39	7.75
737.71	7.10
738.02	29.38
738.34	35.83
738.66	18.72
738.97	14.53
739.29	-12.27
739.61	-4.52
739.93	-11.30
740.24	-31.64
740.56	-41.97
740.87	-29.05
741.19	-25.18
741.51	-11.30
741.82	-10.65
742.14	4.84
742.46	-2.91
742.77	-9.36
743.09	2.91
743.41	0.32
743.72	-0.97
744.04	-4.20
744.35	-11.62
744.67	-11.30
744.99	4.20
745.30	-30.99
745.62	1.61
745.93	4.20
746.25	-8.07
746.56	3.23
746.88	15.50
747.20	16.46
747.51	35.19
747.83	15.17
748.14	13.24
748.46	32.61
748.77	18.40
749.09	20.02
749.40	16.46
749.72	15.50
750.03	16.79
750.35	8.39
750.66	17.43
750.98	40.35
751.29	48.42
751.61	48.75
751.92	65.53
752.24	57.79
752.55	68.76
752.87	49.07
753.18	13.56
753.50	14.53
753.81	10.33
754.13	-19.37
754.44	-20.66
754.76	-20.98
755.07	-13.88
755.38	-11.62
755.70	-34.22
756.01	-38.09
756.33	-29.05
756.64	-30.99
756.95	-41.97
757.27	-43.91
757.58	-30.02
757.90	-13.56
758.21	2.26
758.52	12.27
758.84	3.23
759.15	3.87
759.47	23.24
759.78	20.98
760.09	15.17
760.41	10.01
760.72	20.34
761.03	21.63
761.35	15.82
761.66	-18.40
761.97	-19.05
762.29	-24.21
762.60	-34.54
762.91	-48.10
763.23	-27.76
763.54	-1.61
763.85	30.67
764.17	41.65
764.48	62.63
764.79	63.28
765.10	62.95
765.42	58.43
765.73	39.39
766.04	29.70
766.36	20.98
766.67	5.17
766.98	10.01
767.29	10.65
767.61	14.20
767.92	26.15
768.23	4.52
768.54	0.65
768.86	-3.87
769.17	-3.23
769.48	-6.13
769.79	-6.46
770.10	-9.36
770.42	-11.30
770.73	-12.91
771.04	-24.86
771.35	-36.16
771.66	-38.09
771.98	-35.83
772.29	-49.07
772.60	-43.91
772.91	-36.80
773.22	-19.37
773.53	-2.58
773.85	9.36
774.16	-6.46
774.47	1.29
774.78	13.88
775.09	16.46
775.40	8.72
775.71	-1.61
776.02	0.97
776.34	9.36
776.65	23.89
776.96	30.35
777.27	28.41
777.58	34.87
777.89	43.91
778.20	30.35
778.51	24.21
778.82	12.27
779.13	1.61
779.44	-0.97
779.75	-10.33
780.06	-18.40
780.38	-27.76
780.69	-21.31
781.00	-23.24
781.31	-16.46
781.62	-17.43
781.93	-11.30
782.24	-2.91
782.55	0.00
782.86	-1.29
783.17	-2.91
783.48	-11.62
783.79	-5.49
784.10	0.00
784.41	-8.39
784.72	15.50
785.03	15.50
785.34	11.30
785.65	16.79
785.96	20.66
786.27	8.72
786.57	11.30
786.88	-1.94
787.19	-13.24
787.50	-20.98
787.81	-30.99
788.12	-41.32
788.43	-21.95
788.74	-20.34
789.05	-16.79
789.36	-3.55
789.67	18.08
789.98	45.52
790.29	61.02
790.59	51.33
790.90	55.20
791.21	45.52
791.52	51.65
791.83	38.42
792.14	21.63
792.45	14.53
792.75	11.94
793.06	-1.61
793.37	8.39
793.68	-15.17
793.99	-7.75
794.30	-4.84
794.60	8.72
794.91	18.72
795.22	36.48
795.53	23.24
795.84	33.25
796.15	43.91
796.45	38.74
796.76	21.95
797.07	10.98
797.38	-3.87
797.68	-7.43
797.99	8.72
798.30	9.04
798.61	7.75
798.91	-6.78
799.22	5.17
799.53	19.05
799.84	27.44
800.14	25.83
800.45	27.44
800.76	39.39
801.07	49.72
801.37	33.90
801.68	17.11
801.99	19.69
802.29	30.67
802.60	11.30
802.91	-3.55
803.22	-8.07
803.52	2.58
803.83	13.24
804.14	11.94
804.44	-3.87
804.75	0.00
805.06	7.75
805.36	4.84
805.67	-12.59
805.97	-26.15
806.28	-20.02
806.59	-18.08
806.89	-24.54
807.20	-33.90
807.51	-33.90
807.81	-22.28
808.12	-13.56
808.42	-9.04
808.73	-18.40
809.04	-5.81
809.34	6.13
809.65	17.43
809.95	26.80
810.26	36.16
810.56	22.60
810.87	19.69
811.18	20.02
811.48	11.94
811.79	2.91
812.09	-4.20
812.40	-20.66
812.70	-30.99
813.01	-26.80
813.31	-39.71
813.62	-41.32
813.92	-25.18
814.23	-20.98
814.53	-19.05
814.84	13.24
815.14	5.17
815.45	8.72
815.75	3.23
816.06	16.14
816.36	18.40
816.67	20.34
816.97	12.27
817.28	32.61
817.58	39.71
817.89	51.98
818.19	26.80
818.49	15.82
818.80	21.95
819.10	12.91
819.41	3.23
819.71	0.00
820.01	-2.91
820.32	-13.56
820.62	-17.43
820.93	-25.18
821.23	-21.31
821.53	-24.21
821.84	-21.31
822.14	-28.41
822.45	-34.54
822.75	-20.02
823.05	-12.91
823.36	11.30
823.66	6.78
823.96	1.29
824.27	19.05
824.57	43.26
824.87	39.71
825.18	36.80
825.48	16.79
825.78	28.73
826.09	41.65
826.39	37.77
826.69	28.41
827.00	20.66
827.30	30.02
827.60	16.46
827.90	24.21
828.21	19.05
828.51	18.40
828.81	10.98
829.11	23.89
829.42	3.23
829.72	4.52
830.02	-14.53
830.32	-8.07
830.63	-5.81
830.93	6.78
831.23	-7.75
831.53	9.04
831.84	13.24
832.14	19.69
832.44	18.40
832.74	8.72
833.04	3.23
833.35	4.20
833.65	6.78
833.95	14.85
834.25	15.50
834.55	5.49
834.85	12.59
835.16	34.54
835.46	31.96
835.76	33.25
836.06	33.57
836.36	24.54
836.66	27.12
836.96	24.86
837.26	-5.49
837.57	3.23
837.87	-19.37
838.17	-26.15
838.47	-21.63
838.77	-18.40
839.07	-17.76
839.37	2.91
839.67	-2.26
839.97	3.87
840.27	1.29
840.57	6.13
840.88	-5.81
841.18	-15.17
841.48	-32.93
841.78	-31.64
842.08	-25.83
842.38	-18.08
842.68	-30.99
842.98	-29.38
843.28	-16.46
843.58	-6.13
843.88	-11.62
844.18	-3.23
844.48	-11.62
844.78	4.52
845.08	19.05
845.38	12.91
845.68	20.02
845.98	20.02
846.28	-2.26
846.58	-3.23
846.88	-11.30
847.18	-28.73
847.48	-35.19
847.78	-49.72
848.07	-52.62
848.37	-43.58
848.67	-42.94
848.97	-45.52
849.27	-35.19
849.57	-33.57
849.87	-27.44
850.17	-17.43
850.47	-19.69
850.77	-23.57
851.07	-33.90
851.36	-34.54
851.66	-39.06
851.96	-46.17
852.26	-45.84
852.56	-33.90
852.86	-22.60
853.16	-6.78
853.45	1.29
853.75	23.24
854.05	25.18
854.35	21.95
854.65	13.56
854.95	1.29
855.24	2.26
855.54	3.23
855.84	-7.10
856.14	-16.46
856.44	-8.07
856.73	6.46
857.03	26.47
857.33	38.74
857.63	31.96
857.93	38.42
858.22	41.00
858.52	39.71
858.82	35.83
859.12	30.99
859.41	23.89
859.71	38.09
860.01	25.83
860.30	39.06
860.60	46.49
860.90	42.29
861.20	34.54
861.49	25.50
861.79	19.05
862.09	27.76
862.38	8.07
862.68	-6.13
862.98	-4.52
863.27	-12.91
863.57	2.91
863.87	-3.23
864.16	-7.75
864.46	9.68
864.76	10.01
865.05	-1.94
865.35	3.87
865.65	0.97
865.94	-0.65
866.24	-8.72
866.54	-16.14
866.83	-7.43
867.13	20.98
867.42	22.92
867.72	12.91
868.02	2.58
868.31	0.32
868.61	-0.32
868.90	-9.04
869.20	-4.52
869.49	-4.52
869.79	1.61
870.08	14.85
870.38	25.83
870.68	33.25
870.97	38.09
871.27	23.24
871.56	5.49
871.86	12.27
872.15	11.30
872.45	-0.65
872.74	-3.55
873.04	-13.24
873.33	-24.21
873.63	-16.46
873.92	-25.50
874.22	-46.17
874.51	-22.60
874.81	-10.33
875.10	2.58
875.40	-4.84
875.69	12.59
875.98	5.81
876.28	32.28
876.57	28.09
876.87	20.98
877.16	17.43
877.46	41.00
877.75	41.32
878.04	53.59
878.34	40.03
878.63	39.39
878.93	31.96
879.22	20.98
879.51	-9.04
879.81	-16.79
880.10	-18.40
880.40	-29.38
880.69	-35.83
880.98	-42.61
881.28	-31.31
881.57	-15.82
881.86	-12.91
882.16	-15.50
882.45	2.91
882.74	5.81
883.04	26.15
883.33	30.35
883.62	26.47
883.92	47.46
884.21	45.20
884.50	-40.68
>>>>>End Processed Spectral Data<<<<<
