SpectraSuite Data File
++++++++++++++++++++++++++++++++++++
Date: Fri Feb 20 12:06:14 EST 2015
User: Administrator
Dark Spectrum Present: Yes
Reference Spectrum Present: No
Number of Sampled Component Spectra: 1
Spectrometers: SB2+H01071
Integration Time (usec): 5000000 (SB2+H01071)
Spectra Averaged: 1 (SB2+H01071)
Boxcar Smoothing: 3 (SB2+H01071)
Correct for Electrical Dark: No (SB2+H01071)
Strobe/Lamp Enabled: Yes (SB2+H01071)
Correct for Detector Non-linearity: No (SB2+H01071)
Correct for Stray Light: No (SB2+H01071)
Number of Pixels in Processed Spectrum: 2048
>>>>>Begin Processed Spectral Data<<<<<
191.06	103.95
191.43	103.95
191.81	103.95
192.19	34.54
192.56	18.40
192.94	0.00
193.31	-28.09
193.69	-43.91
194.07	-44.23
194.44	-55.53
194.82	-42.29
195.19	-35.83
195.57	-32.28
195.95	-19.37
196.32	-2.91
196.70	-2.91
197.07	1.61
197.45	-11.30
197.83	-12.59
198.20	-8.72
198.58	-9.04
198.95	-18.08
199.33	-4.20
199.70	0.32
200.08	5.81
200.46	10.01
200.83	-5.49
201.21	1.61
201.58	5.81
201.96	2.58
202.33	12.59
202.71	15.82
203.09	11.30
203.46	13.88
203.84	10.65
204.21	6.78
204.59	8.07
204.96	-4.84
205.34	-16.46
205.71	-14.53
206.09	8.07
206.46	13.24
206.84	17.43
207.21	11.30
207.59	22.60
207.96	40.35
208.34	25.50
208.71	-6.46
209.09	-18.40
209.46	-28.73
209.84	-30.99
210.21	-53.27
210.59	-47.46
210.96	-37.77
211.34	-22.60
211.71	-11.94
212.09	11.94
212.46	14.85
212.84	28.73
213.21	-2.58
213.59	1.94
213.96	4.20
214.34	1.61
214.71	-25.83
215.08	-19.69
215.46	-15.17
215.83	6.78
216.21	-2.26
216.58	0.65
216.96	0.97
217.33	10.98
217.70	-4.20
218.08	-3.87
218.45	-15.17
218.83	-18.08
219.20	-30.99
219.58	-32.28
219.95	-35.83
220.32	-11.62
220.70	-9.04
221.07	-12.59
221.45	-5.49
221.82	3.23
222.19	8.07
222.57	-4.20
222.94	-16.46
223.32	-41.00
223.69	-24.21
224.06	-29.05
224.44	-27.12
224.81	-43.58
225.18	-18.08
225.56	-11.62
225.93	-3.87
226.31	0.00
226.68	6.13
227.05	2.58
227.43	10.65
227.80	5.17
228.17	6.13
228.55	22.60
228.92	7.43
229.29	3.87
229.67	9.36
230.04	-3.23
230.41	-6.13
230.79	-18.40
231.16	-18.40
231.53	-18.08
231.91	-14.85
232.28	-10.01
232.65	3.55
233.03	15.17
233.40	36.80
233.77	34.22
234.15	54.24
234.52	63.28
234.89	57.79
235.26	58.76
235.64	39.39
236.01	16.46
236.38	20.34
236.76	8.72
237.13	-11.30
237.50	-9.04
237.87	-24.86
238.25	-8.39
238.62	1.61
238.99	-11.62
239.36	-8.72
239.74	3.87
240.11	6.78
240.48	6.78
240.85	13.88
241.23	20.66
241.60	16.14
241.97	10.98
242.34	3.23
242.72	-13.24
243.09	-1.29
243.46	-11.30
243.83	-24.54
244.20	-23.57
244.58	-21.31
244.95	-12.91
245.32	-0.65
245.69	-2.91
246.07	-5.17
246.44	-6.78
246.81	6.46
247.18	3.55
247.55	-7.75
247.92	-4.52
248.30	-5.17
248.67	-5.49
249.04	-9.68
249.41	-10.01
249.78	-10.98
250.16	12.59
250.53	15.82
250.90	32.93
251.27	30.67
251.64	18.08
252.01	15.17
252.39	18.08
252.76	4.84
253.13	-15.50
253.50	-42.61
253.87	-45.52
254.24	-27.12
254.61	-38.42
254.98	-54.24
255.36	-56.82
255.73	-50.68
256.10	-35.51
256.47	-33.25
256.84	-10.33
257.21	1.94
257.58	7.10
257.95	15.17
258.33	30.99
258.70	23.24
259.07	31.96
259.44	15.17
259.81	10.98
260.18	15.17
260.55	16.14
260.92	1.29
261.29	10.98
261.66	4.52
262.03	2.91
262.40	1.61
262.77	8.07
263.15	-3.87
263.52	-13.88
263.89	-18.40
264.26	-26.47
264.63	-30.99
265.00	-31.64
265.37	-24.54
265.74	-31.64
266.11	-9.36
266.48	-4.84
266.85	4.84
267.22	12.59
267.59	13.88
267.96	10.01
268.33	13.88
268.70	4.20
269.07	12.27
269.44	15.82
269.81	9.36
270.18	17.43
270.55	8.07
270.92	0.97
271.29	4.20
271.66	-9.04
272.03	-6.78
272.40	-8.07
272.77	-17.11
273.14	-6.78
273.51	25.83
273.88	12.91
274.25	15.50
274.62	17.43
274.99	15.82
275.36	22.92
275.73	24.86
276.10	28.09
276.47	41.65
276.84	55.20
277.21	42.29
277.58	39.06
277.94	50.04
278.31	48.10
278.68	25.83
279.05	17.43
279.42	3.23
279.79	2.58
280.16	-5.81
280.53	-28.73
280.90	-43.58
281.27	-54.24
281.64	-32.61
282.01	-33.90
282.37	-21.95
282.74	-7.10
283.11	-1.61
283.48	0.32
283.85	6.13
284.22	-4.84
284.59	-18.08
284.96	-32.93
285.33	-28.41
285.69	-20.66
286.06	-5.49
286.43	-8.07
286.80	-8.39
287.17	4.52
287.54	23.89
287.91	24.21
288.27	24.21
288.64	19.69
289.01	40.03
289.38	43.58
289.75	36.80
290.12	34.22
290.48	17.11
290.85	14.85
291.22	-9.04
291.59	-39.39
291.96	-34.87
292.33	-26.47
292.69	-32.28
293.06	-4.84
293.43	-5.81
293.80	20.34
294.17	55.53
294.53	47.13
294.90	45.84
295.27	63.60
295.64	55.85
296.01	68.76
296.37	54.56
296.74	37.77
297.11	37.77
297.48	42.61
297.84	18.40
298.21	12.91
298.58	-4.52
298.95	1.29
299.31	-4.52
299.68	1.61
300.05	0.32
300.42	2.58
300.78	-7.10
301.15	0.97
301.52	-8.39
301.89	14.20
302.25	8.39
302.62	17.11
302.99	12.59
303.35	5.49
303.72	-6.78
304.09	-12.59
304.46	-21.31
304.82	-29.38
305.19	-33.25
305.56	-22.60
305.92	-2.91
306.29	24.21
306.66	43.91
307.02	22.28
307.39	7.75
307.76	9.68
308.12	3.87
308.49	-1.61
308.86	-29.70
309.23	-35.83
309.59	-20.02
309.96	4.20
310.32	0.32
310.69	-8.72
311.06	-10.33
311.42	3.55
311.79	-4.84
312.16	-14.85
312.52	-16.79
312.89	-19.37
313.26	-13.24
313.62	-11.62
313.99	-15.17
314.35	-3.87
314.72	15.82
315.09	17.43
315.45	27.12
315.82	21.31
316.19	8.72
316.55	10.33
316.92	11.30
317.28	-2.58
317.65	-12.91
318.02	-30.67
318.38	-25.83
318.75	-17.11
319.11	-16.79
319.48	-26.80
319.84	-12.27
320.21	-15.50
320.58	2.91
320.94	15.50
321.31	23.24
321.67	19.37
322.04	26.80
322.40	24.54
322.77	23.24
323.13	15.82
323.50	14.20
323.86	18.08
324.23	35.19
324.60	37.45
324.96	16.79
325.33	12.27
325.69	4.84
326.06	2.58
326.42	-17.43
326.79	-42.94
327.15	-52.62
327.52	-51.65
327.88	-30.99
328.25	-40.68
328.61	-52.62
328.98	-32.61
329.34	-43.58
329.71	-43.91
330.07	-35.83
330.44	-47.46
330.80	-31.64
331.16	-35.83
331.53	-40.35
331.89	-8.07
332.26	16.79
332.62	15.82
332.99	26.80
333.35	37.13
333.72	51.01
334.08	38.09
334.45	20.98
334.81	10.98
335.17	15.82
335.54	13.24
335.90	-2.91
336.27	-11.62
336.63	-0.32
337.00	6.13
337.36	-6.13
337.72	-12.27
338.09	-22.60
338.45	-18.72
338.82	-1.61
339.18	-9.36
339.54	12.59
339.91	25.18
340.27	34.87
340.63	39.39
341.00	31.31
341.36	28.09
341.73	20.34
342.09	8.72
342.45	13.56
342.82	8.39
343.18	16.79
343.54	39.06
343.91	40.03
344.27	59.72
344.63	48.75
345.00	42.94
345.36	43.58
345.72	44.87
346.09	20.98
346.45	29.05
346.81	26.80
347.18	30.99
347.54	36.16
347.90	31.64
348.27	14.85
348.63	15.82
348.99	-8.07
349.36	-8.72
349.72	-13.24
350.08	-17.76
350.45	-30.67
350.81	-16.46
351.17	0.00
351.53	2.58
351.90	7.10
352.26	0.65
352.62	-1.94
352.98	-7.75
353.35	-14.20
353.71	-32.28
354.07	-35.19
354.44	-45.52
354.80	-35.83
355.16	-44.23
355.52	-32.61
355.88	-26.80
356.25	-12.59
356.61	-13.56
356.97	-24.54
357.33	-25.83
357.70	-13.24
358.06	-4.20
358.42	-17.76
358.78	-43.58
359.15	-35.19
359.51	-27.12
359.87	-42.29
360.23	-51.33
360.59	-55.53
360.95	-49.07
361.32	-23.57
361.68	-22.92
362.04	-27.12
362.40	-10.98
362.76	-8.07
363.13	-7.10
363.49	-5.49
363.85	6.46
364.21	3.23
364.57	27.12
364.93	27.76
365.30	41.32
365.66	53.91
366.02	70.38
366.38	52.94
366.74	72.96
367.10	61.98
367.46	65.54
367.83	53.27
368.19	48.10
368.55	27.76
368.91	25.50
369.27	10.65
369.63	20.02
369.99	9.68
370.35	20.66
370.71	20.66
371.08	33.57
371.44	32.93
371.80	41.00
372.16	38.09
372.52	33.90
372.88	26.80
373.24	20.98
373.60	24.54
373.96	33.57
374.32	31.64
374.68	18.72
375.04	29.70
375.40	18.72
375.76	32.61
376.13	24.86
376.49	22.28
376.85	24.86
377.21	31.64
377.57	23.57
377.93	27.76
378.29	23.89
378.65	35.83
379.01	35.83
379.37	20.34
379.73	15.17
380.09	30.35
380.45	21.63
380.81	3.23
381.17	-1.94
381.53	10.33
381.89	19.69
382.25	21.95
382.61	11.62
382.97	20.02
383.33	23.57
383.69	19.37
384.05	10.98
384.41	9.04
384.77	20.02
385.13	34.22
385.49	25.50
385.85	21.63
386.20	26.15
386.56	9.36
386.92	-4.20
387.28	-26.80
387.64	-43.26
388.00	-41.32
388.36	-34.87
388.72	-32.93
389.08	-36.80
389.44	-27.76
389.80	-24.54
390.16	-19.69
390.52	-11.94
390.88	-20.02
391.23	-31.64
391.59	-5.49
391.95	-4.84
392.31	-0.00
392.67	-32.93
393.03	-24.21
393.39	-13.88
393.75	-12.59
394.11	-19.37
394.46	-14.85
394.82	-1.61
395.18	25.50
395.54	14.20
395.90	7.10
396.26	1.61
396.62	-15.50
396.97	-13.24
397.33	-22.92
397.69	-30.02
398.05	-37.77
398.41	-17.43
398.77	-15.50
399.12	-3.87
399.48	-0.65
399.84	-0.97
400.20	0.97
400.56	13.88
400.91	-6.78
401.27	-29.38
401.63	-26.47
401.99	-32.93
402.35	-35.51
402.70	-31.96
403.06	-36.80
403.42	-29.05
403.78	13.88
404.14	16.46
404.49	21.95
404.85	33.90
405.21	31.31
405.57	34.87
405.92	44.87
406.28	36.16
406.64	22.28
407.00	17.76
407.35	12.91
407.71	17.43
408.07	12.59
408.43	11.30
408.78	4.52
409.14	30.99
409.50	43.58
409.85	38.42
410.21	48.10
410.57	49.39
410.93	36.48
411.28	33.90
411.64	13.24
412.00	-11.62
412.35	-16.14
412.71	-18.08
413.07	-14.53
413.42	-15.50
413.78	-2.26
414.14	5.81
414.49	3.87
414.85	13.56
415.21	5.49
415.56	0.97
415.92	28.09
416.28	21.95
416.63	15.82
416.99	44.23
417.35	38.74
417.70	36.16
418.06	39.39
418.42	25.18
418.77	26.47
419.13	16.14
419.48	1.94
419.84	-4.52
420.20	3.55
420.55	0.32
420.91	0.00
421.27	0.97
421.62	23.57
421.98	14.53
422.33	19.69
422.69	17.43
423.05	15.82
423.40	12.91
423.76	10.65
424.11	-14.20
424.47	-8.39
424.82	19.37
425.18	13.24
425.54	36.16
425.89	30.02
426.25	20.66
426.60	28.09
426.96	20.98
427.31	1.94
427.67	3.55
428.02	-3.87
428.38	8.39
428.73	16.46
429.09	19.37
429.44	23.89
429.80	12.91
430.15	20.34
430.51	10.98
430.86	4.52
431.22	0.97
431.57	-15.82
431.93	-10.33
432.28	11.30
432.64	-2.58
432.99	3.23
433.35	9.04
433.70	-7.10
434.06	27.44
434.41	26.15
434.77	9.04
435.12	24.86
435.48	12.59
435.83	14.20
436.19	37.13
436.54	23.24
436.89	12.27
437.25	9.36
437.60	-2.58
437.96	6.13
438.31	12.27
438.67	2.58
439.02	-4.20
439.37	7.75
439.73	7.43
440.08	20.02
440.44	2.91
440.79	0.65
441.15	-2.26
441.50	6.46
441.85	4.20
442.21	18.40
442.56	9.68
442.91	23.89
443.27	13.56
443.62	18.08
443.98	13.88
444.33	10.01
444.68	2.91
445.04	1.61
445.39	7.43
445.74	4.84
446.10	-0.97
446.45	-7.75
446.80	8.39
447.16	-1.29
447.51	3.23
447.86	5.81
448.22	9.68
448.57	6.78
448.92	7.43
449.28	1.29
449.63	3.23
449.98	-9.04
450.34	-17.43
450.69	-29.38
451.04	-20.66
451.40	-13.24
451.75	-18.08
452.10	-5.49
452.45	0.00
452.81	17.76
453.16	35.51
453.51	33.25
453.86	41.00
454.22	33.57
454.57	22.28
454.92	21.63
455.27	5.81
455.63	4.52
455.98	14.20
456.33	-4.84
456.68	-4.52
457.04	5.49
457.39	9.68
457.74	8.07
458.09	-15.82
458.45	-9.04
458.80	-13.88
459.15	8.39
459.50	-1.29
459.85	-3.55
460.21	10.65
460.56	29.38
460.91	27.12
461.26	40.03
461.61	15.17
461.97	10.33
462.32	7.75
462.67	-13.56
463.02	-4.20
463.37	-11.62
463.72	-7.43
464.08	-6.46
464.43	-12.91
464.78	-0.97
465.13	10.01
465.48	8.07
465.83	7.75
466.18	-1.94
466.54	4.52
466.89	15.50
467.24	24.54
467.59	24.21
467.94	14.53
468.29	7.43
468.64	13.24
468.99	13.56
469.34	1.61
469.70	-24.54
470.05	-27.12
470.40	-38.74
470.75	-50.04
471.10	-49.07
471.45	-56.50
471.80	-51.98
472.15	-38.09
472.50	-50.36
472.85	-46.17
473.20	-26.15
473.55	-26.80
473.90	-36.80
474.25	-32.61
474.61	-31.31
474.96	-24.86
475.31	-18.08
475.66	-14.53
476.01	-10.98
476.36	12.91
476.71	27.76
477.06	33.25
477.41	40.35
477.76	42.94
478.11	50.04
478.46	54.56
478.81	40.68
479.16	32.28
479.51	22.92
479.86	18.08
480.21	20.34
480.56	-4.20
480.91	-9.36
481.26	4.52
481.61	0.97
481.96	10.98
482.31	22.60
482.66	16.79
483.00	31.64
483.35	25.50
483.70	13.88
484.05	20.66
484.40	13.88
484.75	10.33
485.10	12.59
485.45	1.29
485.80	-0.97
486.15	6.13
486.50	-11.62
486.85	-15.50
487.20	-17.11
487.55	-26.80
487.89	-34.22
488.24	-24.54
488.59	-8.07
488.94	2.58
489.29	-8.72
489.64	-16.46
489.99	-15.17
490.34	-3.23
490.68	0.97
491.03	-17.43
491.38	-11.30
491.73	6.78
492.08	16.79
492.43	28.73
492.78	20.02
493.12	9.36
493.47	4.20
493.82	-0.00
494.17	-4.20
494.52	-8.07
494.87	-32.61
495.21	-28.09
495.56	-10.33
495.91	4.52
496.26	8.07
496.61	16.14
496.95	20.66
497.30	39.06
497.65	38.74
498.00	17.11
498.35	7.10
498.69	-2.58
499.04	-20.66
499.39	-38.74
499.74	-44.55
500.08	-51.65
500.43	-50.04
500.78	-63.28
501.13	-67.47
501.48	-56.17
501.82	-46.17
502.17	-40.68
502.52	-28.73
502.86	-26.47
503.21	-17.43
503.56	-9.68
503.91	-20.98
504.25	-17.76
504.60	-23.24
504.95	-32.28
505.30	-24.21
505.64	-15.50
505.99	-12.91
506.34	0.32
506.68	-7.10
507.03	-6.13
507.38	14.85
507.72	15.50
508.07	17.11
508.42	25.18
508.76	3.87
509.11	14.20
509.46	31.96
509.80	12.59
510.15	10.65
510.50	6.13
510.84	2.91
511.19	20.98
511.54	11.62
511.88	4.84
512.23	22.92
512.57	15.82
512.92	11.62
513.27	0.32
513.61	6.78
513.96	13.24
514.31	11.62
514.65	-1.94
515.00	-11.30
515.34	-6.13
515.69	-4.52
516.03	3.87
516.38	-15.50
516.73	-33.25
517.07	-44.23
517.42	-33.25
517.76	-17.76
518.11	-7.10
518.45	-23.57
518.80	-3.87
519.15	20.66
519.49	25.83
519.84	35.51
520.18	-2.91
520.53	-12.91
520.87	-18.08
521.22	-23.89
521.56	-41.97
521.91	-24.86
522.25	-27.76
522.60	-3.55
522.94	20.02
523.29	22.60
523.63	29.70
523.98	36.16
524.32	24.54
524.67	9.68
525.01	-0.32
525.36	-18.08
525.70	-4.52
526.05	-10.98
526.39	-20.34
526.74	-11.94
527.08	5.17
527.43	-12.91
527.77	-4.84
528.12	-17.43
528.46	-7.43
528.80	3.23
529.15	-7.10
529.49	-14.85
529.84	15.82
530.18	8.39
530.53	-6.78
530.87	-12.91
531.21	-15.17
531.56	4.52
531.90	-4.84
532.25	-15.50
532.59	-5.81
532.93	10.33
533.28	10.01
533.62	15.82
533.97	0.00
534.31	7.75
534.65	11.30
535.00	20.02
535.34	18.40
535.68	39.06
536.03	29.38
536.37	35.83
536.71	53.27
537.06	48.42
537.40	20.98
537.74	22.60
538.09	2.26
538.43	3.55
538.77	-9.04
539.12	-5.81
539.46	9.68
539.80	17.76
540.15	8.07
540.49	24.21
540.83	41.32
541.18	109.44
541.52	100.72
541.86	108.15
542.20	111.70
542.55	116.22
542.89	101.05
543.23	85.23
543.58	27.12
543.92	23.24
544.26	7.10
544.60	10.98
544.95	24.54
545.29	0.97
545.63	-0.32
545.97	-1.94
546.32	-25.18
546.66	-24.21
547.00	-25.50
547.34	-34.54
547.68	-12.91
548.03	-6.46
548.37	-13.56
548.71	4.52
549.05	-10.33
549.39	-15.17
549.74	-19.37
550.08	-25.50
550.42	-20.02
550.76	-16.46
551.10	-38.09
551.45	-25.83
551.79	-21.63
552.13	-22.28
552.47	-20.34
552.81	-26.47
553.15	-23.89
553.50	3.23
553.84	9.04
554.18	10.65
554.52	29.38
554.86	32.93
555.20	34.54
555.54	29.05
555.88	17.76
556.23	0.00
556.57	-2.91
556.91	-35.19
557.25	-36.48
557.59	-48.10
557.93	-21.31
558.27	-9.04
558.61	-3.23
558.95	-11.94
559.29	12.91
559.64	8.07
559.98	-0.32
560.32	-19.69
560.66	-32.28
561.00	-30.67
561.34	-35.83
561.68	-36.16
562.02	-40.03
562.36	-9.36
562.70	-14.20
563.04	-10.01
563.38	-13.88
563.72	-5.49
564.06	0.65
564.40	-0.97
564.74	-4.52
565.08	-10.01
565.42	-25.83
565.76	-15.17
566.10	-1.94
566.44	-8.07
566.78	1.29
567.12	-9.36
567.46	-8.07
567.80	17.43
568.14	18.72
568.48	15.17
568.82	17.76
569.16	-3.55
569.50	1.61
569.84	3.23
570.18	10.65
570.52	10.98
570.86	5.49
571.20	-7.10
571.54	2.58
571.88	0.32
572.22	2.26
572.55	-10.65
572.89	4.20
573.23	15.82
573.57	6.13
573.91	24.54
574.25	12.59
574.59	2.91
574.93	-8.72
575.27	-33.57
575.61	-51.01
575.94	-46.17
576.28	-40.35
576.62	-8.07
576.96	10.33
577.30	29.38
577.64	47.13
577.98	53.59
578.32	70.38
578.65	59.08
578.99	42.29
579.33	30.35
579.67	25.18
580.01	19.05
580.35	7.43
580.68	1.61
581.02	11.94
581.36	6.78
581.70	5.49
582.04	2.58
582.37	-3.87
582.71	5.17
583.05	2.58
583.39	-6.13
583.73	-18.72
584.06	-17.43
584.40	-20.66
584.74	-20.66
585.08	-40.35
585.41	-34.22
585.75	-29.38
586.09	-21.95
586.43	-33.90
586.76	-32.93
587.10	-31.64
587.44	-13.56
587.78	-26.47
588.11	-41.00
588.45	-42.29
588.79	-37.45
589.13	-32.61
589.46	-39.39
589.80	-38.09
590.14	-25.83
590.47	-10.65
590.81	3.87
591.15	15.82
591.48	4.52
591.82	15.50
592.16	9.04
592.50	11.62
592.83	13.56
593.17	11.62
593.51	21.95
593.84	34.54
594.18	39.71
594.51	65.86
594.85	70.38
595.19	70.70
595.52	64.57
595.86	36.16
596.20	40.03
596.53	48.75
596.87	31.96
597.21	10.33
597.54	10.33
597.88	5.49
598.21	32.93
598.55	33.25
598.89	12.27
599.22	5.81
599.56	18.08
599.89	7.43
600.23	6.46
600.57	-7.43
600.90	-18.08
601.24	-5.17
601.57	2.91
601.91	4.52
602.24	-10.98
602.58	-2.26
602.91	-1.94
603.25	3.55
603.58	-3.87
603.92	-18.72
604.26	-19.69
604.59	-11.62
604.93	-15.17
605.26	-6.78
605.60	7.43
605.93	13.24
606.27	20.98
606.60	25.18
606.94	30.02
607.27	22.60
607.61	21.95
607.94	2.91
608.28	3.23
608.61	0.97
608.95	-7.75
609.28	6.46
609.61	10.01
609.95	9.04
610.28	5.81
610.62	-3.23
610.95	1.29
611.29	-3.23
611.62	-21.63
611.96	-12.27
612.29	-7.75
612.62	-1.61
612.96	-6.78
613.29	4.52
613.63	12.91
613.96	32.61
614.29	23.57
614.63	23.89
614.96	22.28
615.30	27.76
615.63	20.98
615.96	30.35
616.30	19.37
616.63	31.96
616.97	37.45
617.30	38.74
617.63	44.55
617.97	40.35
618.30	15.50
618.63	15.50
618.97	6.13
619.30	-10.01
619.63	-11.30
619.97	-17.11
620.30	-18.40
620.63	-3.55
620.97	-3.87
621.30	-6.78
621.63	-12.59
621.97	-6.13
622.30	7.75
622.63	6.78
622.96	9.68
623.30	-6.78
623.63	1.61
623.96	25.50
624.30	31.31
624.63	13.56
624.96	7.75
625.29	-2.91
625.63	14.53
625.96	20.66
626.29	3.23
626.62	-4.20
626.96	-4.20
627.29	3.87
627.62	1.94
627.95	-3.55
628.28	-13.24
628.62	-7.75
628.95	-28.09
629.28	-26.80
629.61	-21.31
629.95	5.81
630.28	24.86
630.61	27.44
630.94	29.70
631.27	44.87
631.60	40.03
631.94	41.32
632.27	31.64
632.60	25.18
632.93	12.27
633.26	-0.32
633.59	-11.94
633.93	-0.65
634.26	-4.84
634.59	-18.72
634.92	-37.45
635.25	-22.28
635.58	-16.79
635.91	-10.65
636.24	-11.30
636.58	-3.55
636.91	-4.20
637.24	-0.97
637.57	-13.56
637.90	-20.34
638.23	-15.82
638.56	-19.69
638.89	-29.38
639.22	-21.31
639.55	-19.69
639.88	-4.20
640.22	2.58
640.55	-14.53
640.88	-4.52
641.21	-15.17
641.54	-28.73
641.87	-13.56
642.20	-33.25
642.53	-35.51
642.86	-13.88
643.19	-9.04
643.52	-9.36
643.85	-11.30
644.18	-33.90
644.51	-38.42
644.84	-24.54
645.17	-30.35
645.50	-55.20
645.83	-44.55
646.16	-22.28
646.49	-13.56
646.82	23.89
647.15	12.27
647.48	19.37
647.81	30.35
648.14	24.86
648.47	4.52
648.80	2.58
649.13	-28.09
649.46	-22.28
649.79	-21.95
650.11	-13.56
650.44	-1.61
650.77	-8.39
651.10	-10.65
651.43	1.61
651.76	-13.56
652.09	-24.86
652.42	-28.41
652.75	-36.16
653.08	-20.34
653.41	-13.88
653.73	-17.11
654.06	-13.56
654.39	-13.24
654.72	-11.62
655.05	-11.94
655.38	-8.39
655.71	-0.65
656.04	1.61
656.36	30.35
656.69	36.80
657.02	29.70
657.35	28.41
657.68	28.73
658.01	23.24
658.33	27.76
658.66	6.13
658.99	17.11
659.32	14.20
659.65	20.66
659.97	7.43
660.30	12.27
660.63	11.94
660.96	20.98
661.29	20.34
661.61	26.15
661.94	20.66
662.27	23.89
662.60	14.20
662.92	6.78
663.25	-8.39
663.58	-10.65
663.91	-20.02
664.23	-38.09
664.56	-20.02
664.89	-20.66
665.22	-25.83
665.54	-9.04
665.87	-24.86
666.20	-21.95
666.53	-18.40
666.85	-18.72
667.18	-11.94
667.51	-15.17
667.83	-37.77
668.16	-15.17
668.49	-12.27
668.81	6.46
669.14	-1.29
669.47	10.01
669.79	26.80
670.12	30.35
670.45	10.98
670.77	1.29
671.10	-15.82
671.43	-27.76
671.75	-35.83
672.08	-52.62
672.41	-58.76
672.73	-53.59
673.06	-45.84
673.39	-37.45
673.71	-40.03
674.04	-51.33
674.36	-50.36
674.69	-29.38
675.02	-22.92
675.34	-23.89
675.67	-21.95
675.99	-3.23
676.32	4.52
676.64	7.75
676.97	12.59
677.30	15.50
677.62	12.27
677.95	14.85
678.27	6.13
678.60	13.56
678.92	10.33
679.25	-4.52
679.57	-14.20
679.90	-8.07
680.22	-0.97
680.55	-4.52
680.88	-19.37
681.20	-7.10
681.53	-4.84
681.85	0.32
682.18	2.58
682.50	-3.23
682.83	0.97
683.15	7.10
683.47	2.26
683.80	-10.98
684.12	-22.92
684.45	-27.76
684.77	-21.95
685.10	-29.38
685.42	-25.83
685.75	-30.35
686.07	-27.44
686.40	-21.63
686.72	-2.58
687.04	-2.26
687.37	8.72
687.69	22.92
688.02	26.15
688.34	32.28
688.67	41.65
688.99	11.94
689.31	14.20
689.64	19.05
689.96	15.50
690.28	20.66
690.61	27.76
690.93	38.74
691.26	65.86
691.58	61.02
691.90	47.46
692.23	28.09
692.55	26.15
692.87	29.70
693.20	21.63
693.52	10.98
693.84	3.23
694.17	14.53
694.49	12.91
694.81	12.27
695.14	3.55
695.46	-7.75
695.78	-15.50
696.11	-23.57
696.43	-36.16
696.75	-20.98
697.08	-28.73
697.40	-36.48
697.72	-34.54
698.04	-23.24
698.37	-7.75
698.69	1.61
699.01	-0.32
699.33	17.11
699.66	30.99
699.98	31.64
700.30	31.64
700.62	31.31
700.95	16.14
701.27	10.98
701.59	3.55
701.91	3.87
702.24	-17.76
702.56	-21.63
702.88	-15.50
703.20	-3.23
703.52	-7.10
703.85	-30.35
704.17	-28.09
704.49	-8.07
704.81	-13.88
705.13	-26.80
705.45	-17.43
705.78	-22.28
706.10	-7.10
706.42	-22.92
706.74	-11.94
707.06	2.26
707.38	14.85
707.71	7.10
708.03	23.57
708.35	34.87
708.67	29.70
708.99	-8.39
709.31	-18.40
709.63	-22.60
709.95	-19.69
710.27	-30.35
710.60	-29.70
710.92	-22.92
711.24	-12.59
711.56	-25.18
711.88	-41.00
712.20	-48.75
712.52	-52.30
712.84	-52.62
713.16	-45.84
713.48	-34.87
713.80	-26.47
714.12	-21.31
714.44	-23.24
714.76	-2.26
715.08	-13.24
715.40	-17.43
715.72	-7.43
716.04	-10.65
716.36	-13.88
716.68	-7.43
717.00	-24.21
717.32	-14.85
717.64	-3.55
717.96	0.65
718.28	12.91
718.60	27.44
718.92	35.83
719.24	29.38
719.56	32.93
719.88	21.95
720.20	6.78
720.52	12.91
720.84	-0.32
721.16	-0.65
721.48	18.72
721.80	7.75
722.12	25.83
722.44	33.57
722.76	27.44
723.08	22.28
723.40	17.11
723.72	4.84
724.03	3.87
724.35	1.61
724.67	8.07
724.99	-0.97
725.31	10.98
725.63	0.00
725.95	-17.11
726.27	-21.63
726.58	-22.60
726.90	-25.83
727.22	-5.81
727.54	-12.27
727.86	-16.46
728.18	7.43
728.50	12.91
728.81	20.66
729.13	18.72
729.45	-4.84
729.77	-3.55
730.09	16.79
730.40	1.61
730.72	-2.91
731.04	-26.47
731.36	-16.14
731.68	-6.13
731.99	-10.33
732.31	-19.05
732.63	-14.20
732.95	-7.75
733.27	-2.58
733.58	-15.50
733.90	-4.84
734.22	2.58
734.54	4.84
734.85	3.87
735.17	9.68
735.49	6.78
735.80	-5.17
736.12	-29.05
736.44	-45.20
736.76	-40.68
737.07	-24.86
737.39	-34.22
737.71	-25.83
738.02	-6.46
738.34	-6.46
738.66	10.01
738.97	1.61
739.29	-16.14
739.61	-6.78
739.93	-19.37
740.24	-39.71
740.56	-36.80
740.87	-27.44
741.19	-20.66
741.51	-18.08
741.82	-29.38
742.14	-7.10
742.46	16.14
742.77	7.10
743.09	9.68
743.41	-4.84
743.72	3.55
744.04	1.94
744.35	-11.94
744.67	-27.12
744.99	-15.17
745.30	-45.20
745.62	-19.05
745.93	-33.25
746.25	-44.23
746.56	-34.22
746.88	-24.86
747.20	-8.72
747.51	19.05
747.83	7.43
748.14	27.12
748.46	43.91
748.77	34.54
749.09	25.18
749.40	14.85
749.72	3.23
750.03	7.75
750.35	-0.65
750.66	3.23
750.98	14.85
751.29	30.99
751.61	31.96
751.92	50.04
752.24	41.97
752.55	49.07
752.87	35.19
753.18	14.53
753.50	-6.13
753.81	9.04
754.13	-29.38
754.44	-19.69
754.76	-20.02
755.07	-11.62
755.38	4.20
755.70	6.46
756.01	-11.94
756.33	19.37
756.64	6.13
756.95	-4.52
757.27	1.29
757.58	3.23
757.90	18.40
758.21	27.12
758.52	21.95
758.84	23.89
759.15	33.90
759.47	51.33
759.78	53.27
760.09	54.24
760.41	50.36
760.72	63.28
761.03	60.69
761.35	45.84
761.66	20.66
761.97	6.78
762.29	-13.24
762.60	-20.34
762.91	-36.48
763.23	-23.24
763.54	-9.04
763.85	8.07
764.17	6.46
764.48	17.11
764.79	30.35
765.10	39.06
765.42	34.22
765.73	39.39
766.04	33.57
766.36	40.35
766.67	43.26
766.98	41.32
767.29	33.25
767.61	40.03
767.92	30.02
768.23	26.15
768.54	22.60
768.86	13.24
769.17	13.24
769.48	16.46
769.79	10.33
770.10	11.62
770.42	3.23
770.73	5.49
771.04	7.43
771.35	3.55
771.66	3.87
771.98	-4.20
772.29	-17.11
772.60	-25.83
772.91	-19.05
773.22	-17.43
773.53	-15.50
773.85	-10.65
774.16	-8.72
774.47	6.13
774.78	21.95
775.09	16.46
775.40	15.82
775.71	15.82
776.02	10.33
776.34	21.31
776.65	25.50
776.96	34.22
777.27	40.03
777.58	42.29
777.89	34.22
778.20	31.64
778.51	25.18
778.82	24.86
779.13	20.66
779.44	6.46
779.75	-3.23
780.06	5.17
780.38	12.91
780.69	12.91
781.00	0.65
781.31	4.84
781.62	7.43
781.93	7.75
782.24	-4.20
782.55	-6.13
782.86	0.97
783.17	12.91
783.48	9.36
783.79	18.40
784.10	35.51
784.41	38.09
784.72	19.37
785.03	8.72
785.34	0.97
785.65	-9.36
785.96	-10.65
786.27	-23.57
786.57	-24.54
786.88	-12.91
787.19	-23.57
787.50	-38.74
787.81	-45.52
788.12	-45.20
788.43	-21.63
788.74	-14.85
789.05	-23.57
789.36	-10.98
789.67	6.13
789.98	23.89
790.29	23.24
790.59	5.81
790.90	6.78
791.21	12.91
791.52	20.66
791.83	19.69
792.14	15.50
792.45	11.62
792.75	20.02
793.06	11.30
793.37	23.57
793.68	-0.97
793.99	-24.86
794.30	-26.80
794.60	-16.46
794.91	-26.80
795.22	-6.13
795.53	-10.98
795.84	11.94
796.15	38.74
796.45	39.39
796.76	43.58
797.07	41.65
797.38	19.69
797.68	9.36
797.99	4.52
798.30	11.62
798.61	4.20
798.91	-6.46
799.22	1.29
799.53	13.56
799.84	16.79
800.14	15.17
800.45	4.20
800.76	22.92
801.07	20.98
801.37	9.36
801.68	-6.46
801.99	-11.30
802.29	0.00
802.60	-8.39
802.91	-20.34
803.22	-46.81
803.52	-46.17
803.83	-31.96
804.14	-34.22
804.44	-49.07
804.75	-35.83
805.06	-39.71
805.36	-22.60
805.67	-22.92
805.97	-31.64
806.28	-17.11
806.59	-10.98
806.89	-21.95
807.20	-19.05
807.51	1.29
807.81	10.65
808.12	22.28
808.42	13.56
808.73	4.52
809.04	17.11
809.34	19.69
809.65	8.72
809.95	3.23
810.26	9.04
810.56	4.52
810.87	6.78
811.18	-1.61
811.48	1.29
811.79	5.81
812.09	4.52
812.40	-3.23
812.70	-0.65
813.01	-6.46
813.31	-23.24
813.62	-23.57
813.92	-28.73
814.23	-20.98
814.53	-29.05
814.84	-0.97
815.14	4.52
815.45	33.25
815.75	29.05
816.06	41.65
816.36	49.72
816.67	45.84
816.97	25.50
817.28	24.86
817.58	15.17
817.89	14.53
818.19	-5.49
818.49	-10.65
818.80	4.52
819.10	-6.46
819.41	4.84
819.71	8.39
820.01	7.43
820.32	14.85
820.62	11.30
820.93	1.29
821.23	28.73
821.53	26.15
821.84	23.24
822.14	23.57
822.45	12.27
822.75	20.02
823.05	35.83
823.36	27.44
823.66	20.98
823.96	26.15
824.27	25.83
824.57	34.54
824.87	23.89
825.18	18.72
825.48	12.91
825.78	25.18
826.09	15.82
826.39	17.11
826.69	15.82
827.00	17.11
827.30	24.86
827.60	20.34
827.90	15.82
828.21	16.46
828.51	16.14
828.81	13.88
829.11	10.33
829.42	-20.02
829.72	-10.01
830.02	-23.24
830.32	-12.91
830.63	-7.43
830.93	3.87
831.23	1.29
831.53	15.50
831.84	14.20
832.14	30.99
832.44	21.95
832.74	13.88
833.04	-3.55
833.35	-1.94
833.65	10.33
833.95	8.07
834.25	-1.94
834.55	3.87
834.85	12.27
835.16	39.06
835.46	31.64
835.76	27.76
836.06	11.94
836.36	22.92
836.66	18.08
836.96	12.91
837.26	-3.55
837.57	19.37
837.87	-2.26
838.17	5.17
838.47	-11.30
838.77	-16.14
839.07	-20.02
839.37	-18.08
839.67	-23.89
839.97	-14.85
840.27	-15.82
840.57	-11.30
840.88	-6.13
841.18	-0.32
841.48	-7.43
841.78	-4.84
842.08	4.84
842.38	7.75
842.68	11.94
842.98	19.37
843.28	21.63
843.58	30.35
843.88	22.92
844.18	21.31
844.48	29.38
844.78	28.41
845.08	32.28
845.38	21.63
845.68	24.54
845.98	11.94
846.28	-2.91
846.58	-17.76
846.88	-26.47
847.18	-34.22
847.48	-31.96
847.78	-29.38
848.07	-23.57
848.37	-11.94
848.67	1.29
848.97	10.01
849.27	28.09
849.57	32.61
849.87	22.28
850.17	24.86
850.47	24.21
850.77	15.82
851.07	11.62
851.36	-10.98
851.66	-13.24
851.96	-24.86
852.26	-25.18
852.56	-23.57
852.86	-19.05
853.16	-23.57
853.45	-29.05
853.75	-28.09
854.05	-12.91
854.35	-14.85
854.65	-18.72
854.95	-24.86
855.24	-6.13
855.54	15.82
855.84	24.86
856.14	20.66
856.44	26.80
856.73	45.20
857.03	56.82
857.33	46.49
857.63	26.47
857.93	17.11
858.22	32.28
858.52	24.21
858.82	-0.32
859.12	1.29
859.41	8.72
859.71	22.28
860.01	19.69
860.30	2.58
860.60	3.23
860.90	-1.94
861.20	-11.30
861.49	-18.40
861.79	-12.27
862.09	3.55
862.38	9.68
862.68	17.43
862.98	51.01
863.27	62.95
863.57	67.79
863.87	50.04
864.16	31.31
864.46	37.45
864.76	30.02
865.05	5.17
865.35	-6.78
865.65	1.61
865.94	10.98
866.24	2.91
866.54	10.01
866.83	27.12
867.13	41.65
867.42	47.46
867.72	24.21
868.02	-5.49
868.31	16.46
868.61	5.81
868.90	-17.43
869.20	-10.33
869.49	-10.01
869.79	-2.58
870.08	18.72
870.38	17.43
870.68	7.10
870.97	22.28
871.27	10.33
871.56	-9.04
871.86	-6.13
872.15	-6.78
872.45	-16.46
872.74	-18.72
873.04	-16.79
873.33	-18.72
873.63	-2.58
873.92	-9.36
874.22	-10.01
874.51	-1.29
874.81	13.56
875.10	10.01
875.40	0.65
875.69	-2.91
875.98	2.58
876.28	26.15
876.57	18.40
876.87	5.17
877.16	-0.32
877.46	23.89
877.75	23.89
878.04	20.02
878.34	-9.36
878.63	5.17
878.93	9.36
879.22	-0.97
879.51	-24.54
879.81	-21.63
880.10	-16.46
880.40	-23.89
880.69	-46.49
880.98	-52.62
881.28	-34.54
881.57	-25.50
881.86	-22.28
882.16	-23.57
882.45	11.30
882.74	20.98
883.04	38.74
883.33	33.57
883.62	30.99
883.92	54.24
884.21	-9.04
884.50	2.26
>>>>>End Processed Spectral Data<<<<<
