SpectraSuite Data File
++++++++++++++++++++++++++++++++++++
Date: Fri Feb 20 12:10:09 EST 2015
User: Administrator
Dark Spectrum Present: Yes
Reference Spectrum Present: No
Number of Sampled Component Spectra: 1
Spectrometers: SB2+H01071
Integration Time (usec): 5000000 (SB2+H01071)
Spectra Averaged: 1 (SB2+H01071)
Boxcar Smoothing: 3 (SB2+H01071)
Correct for Electrical Dark: No (SB2+H01071)
Strobe/Lamp Enabled: Yes (SB2+H01071)
Correct for Detector Non-linearity: No (SB2+H01071)
Correct for Stray Light: No (SB2+H01071)
Number of Pixels in Processed Spectrum: 2048
>>>>>Begin Processed Spectral Data<<<<<
191.06	-22.60
191.43	-22.60
191.81	-22.60
192.19	-22.28
192.56	0.97
192.94	6.13
193.31	7.10
193.69	3.87
194.07	4.84
194.44	8.72
194.82	18.72
195.19	1.94
195.57	-3.23
195.95	-1.29
196.32	3.23
196.70	-7.43
197.07	-24.86
197.45	-41.32
197.83	-29.38
198.20	-16.46
198.58	-19.05
198.95	-8.39
199.33	16.46
199.70	30.67
200.08	26.47
200.46	17.43
200.83	10.65
201.21	26.15
201.58	12.59
201.96	0.65
202.33	14.20
202.71	29.05
203.09	12.27
203.46	5.17
203.84	10.33
204.21	2.26
204.59	7.43
204.96	3.55
205.34	-7.10
205.71	-1.61
206.09	5.49
206.46	-11.94
206.84	9.04
207.21	3.23
207.59	1.61
207.96	5.49
208.34	14.20
208.71	3.55
209.09	-5.49
209.46	-21.31
209.84	-10.01
210.21	-5.49
210.59	0.32
210.96	-0.32
211.34	-9.68
211.71	-10.98
212.09	-3.55
212.46	-22.92
212.84	-43.26
213.21	-63.28
213.59	-63.92
213.96	-51.01
214.34	-34.54
214.71	-39.71
215.08	-31.96
215.46	-16.79
215.83	15.50
216.21	6.46
216.58	11.94
216.96	6.46
217.33	22.28
217.70	24.86
218.08	14.85
218.45	-3.23
218.83	-12.91
219.20	-19.37
219.58	-26.47
219.95	-40.03
220.32	-39.71
220.70	-41.32
221.07	-43.91
221.45	-35.19
221.82	-24.54
222.19	-19.05
222.57	-20.34
222.94	-15.82
223.32	-12.91
223.69	-4.52
224.06	7.10
224.44	-2.58
224.81	-6.78
225.18	-5.81
225.56	2.26
225.93	11.94
226.31	20.98
226.68	6.46
227.05	4.84
227.43	13.24
227.80	15.82
228.17	8.39
228.55	3.55
228.92	-18.72
229.29	-7.10
229.67	6.78
230.04	-1.94
230.41	4.84
230.79	-3.87
231.16	7.75
231.53	11.62
231.91	13.88
232.28	8.72
232.65	10.65
233.03	2.91
233.40	29.70
233.77	26.80
234.15	30.67
234.52	23.89
234.89	32.28
235.26	34.22
235.64	30.99
236.01	14.53
236.38	10.65
236.76	23.24
237.13	27.44
237.50	12.91
237.87	11.94
238.25	19.69
238.62	16.14
238.99	8.72
239.36	5.17
239.74	1.94
240.11	5.81
240.48	-1.94
240.85	-5.49
241.23	-6.78
241.60	-10.98
241.97	-22.28
242.34	-39.06
242.72	-36.48
243.09	-27.44
243.46	-45.20
243.83	-51.01
244.20	-47.13
244.58	-55.20
244.95	-48.42
245.32	-57.46
245.69	-60.69
246.07	-43.58
246.44	-40.35
246.81	-34.54
247.18	-25.50
247.55	-1.29
247.92	6.13
248.30	-4.52
248.67	8.72
249.04	13.88
249.41	16.79
249.78	3.87
250.16	-1.61
250.53	-3.55
250.90	6.78
251.27	1.29
251.64	-18.72
252.01	-20.98
252.39	1.29
252.76	-2.91
253.13	-3.87
253.50	-12.59
253.87	-12.59
254.24	-1.61
254.61	-3.87
254.98	-32.28
255.36	-35.51
255.73	-40.35
256.10	-37.45
256.47	-48.75
256.84	-32.93
257.21	-34.87
257.58	-20.98
257.95	-29.05
258.33	-20.02
258.70	-8.39
259.07	-14.20
259.44	-19.69
259.81	-4.20
260.18	-1.94
260.55	9.36
260.92	-11.94
261.29	-20.66
261.66	-7.10
262.03	-11.30
262.40	-40.35
262.77	-24.54
263.15	-29.70
263.52	-17.11
263.89	-17.76
264.26	-28.41
264.63	-26.80
265.00	-23.57
265.37	-22.92
265.74	-12.27
266.11	-10.98
266.48	8.39
266.85	28.73
267.22	21.63
267.59	29.05
267.96	17.11
268.33	11.62
268.70	24.21
269.07	23.24
269.44	8.72
269.81	9.68
270.18	27.76
270.55	20.34
270.92	8.39
271.29	11.62
271.66	4.84
272.03	19.05
272.40	24.86
272.77	14.85
273.14	32.61
273.51	43.58
273.88	28.41
274.25	24.21
274.62	13.88
274.99	5.17
275.36	19.05
275.73	5.81
276.10	21.63
276.47	35.51
276.84	43.26
277.21	39.71
277.58	38.74
277.94	22.92
278.31	37.45
278.68	37.77
279.05	18.72
279.42	9.68
279.79	7.75
280.16	20.02
280.53	16.79
280.90	-15.82
281.27	-30.99
281.64	-10.33
282.01	-7.10
282.37	-0.32
282.74	-2.58
283.11	2.26
283.48	11.62
283.85	9.36
284.22	9.68
284.59	1.94
284.96	-15.82
285.33	-8.39
285.69	-20.98
286.06	-11.62
286.43	-19.37
286.80	-20.34
287.17	-5.49
287.54	14.85
287.91	-3.87
288.27	10.01
288.64	17.76
289.01	42.94
289.38	30.67
289.75	20.34
290.12	24.86
290.48	32.93
290.85	28.09
291.22	13.56
291.59	-15.82
291.96	-17.11
292.33	-29.38
292.69	-43.91
293.06	-42.94
293.43	-47.46
293.80	-29.70
294.17	-24.21
294.53	-27.12
294.90	-19.05
295.27	-4.52
295.64	6.13
296.01	24.86
296.37	14.53
296.74	17.76
297.11	17.43
297.48	22.92
297.84	-2.58
298.21	-8.07
298.58	-19.69
298.95	-19.69
299.31	-24.54
299.68	-8.07
300.05	-8.07
300.42	16.79
300.78	1.29
301.15	7.43
301.52	5.49
301.89	25.83
302.25	4.84
302.62	0.00
302.99	-15.82
303.35	-12.27
303.72	-22.28
304.09	-33.57
304.46	-43.58
304.82	-28.41
305.19	-7.10
305.56	-2.91
305.92	3.55
306.29	16.14
306.66	34.87
307.02	11.94
307.39	-2.26
307.76	-4.84
308.12	4.52
308.49	-7.43
308.86	-17.76
309.23	-20.98
309.59	-2.26
309.96	20.66
310.32	8.07
310.69	-8.72
311.06	11.30
311.42	14.85
311.79	12.27
312.16	3.87
312.52	-8.39
312.89	-9.04
313.26	-0.97
313.62	-10.33
313.99	-10.98
314.35	-5.49
314.72	9.04
315.09	4.52
315.45	14.85
315.82	4.20
316.19	8.07
316.55	3.23
316.92	-6.78
317.28	-8.07
317.65	-2.26
318.02	-21.95
318.38	-23.24
318.75	-24.54
319.11	-26.47
319.48	-16.14
319.84	-14.20
320.21	-30.02
320.58	-6.13
320.94	22.60
321.31	12.27
321.67	21.63
322.04	10.01
322.40	21.31
322.77	47.46
323.13	38.74
323.50	22.28
323.86	20.66
324.23	17.43
324.60	16.79
324.96	-7.10
325.33	-37.77
325.69	-37.13
326.06	-31.31
326.42	-31.64
326.79	-47.78
327.15	-50.68
327.52	-54.56
327.88	-34.87
328.25	-44.23
328.61	-47.46
328.98	-32.93
329.34	-23.24
329.71	-26.15
330.07	-21.63
330.44	-30.02
330.80	-20.66
331.16	-31.64
331.53	-33.90
331.89	-27.12
332.26	-11.62
332.62	-4.52
332.99	5.49
333.35	9.68
333.72	19.69
334.08	13.24
334.45	10.33
334.81	18.72
335.17	23.89
335.54	29.38
335.90	16.14
336.27	11.62
336.63	16.14
337.00	16.46
337.36	5.17
337.72	-14.53
338.09	-22.92
338.45	-6.78
338.82	6.78
339.18	-4.52
339.54	-3.55
339.91	-3.87
340.27	1.61
340.63	-2.26
341.00	-21.95
341.36	-22.92
341.73	-20.34
342.09	-14.53
342.45	-0.97
342.82	10.33
343.18	21.95
343.54	50.68
343.91	53.91
344.27	66.50
344.63	61.98
345.00	58.11
345.36	58.11
345.72	52.30
346.09	28.73
346.45	23.24
346.81	17.11
347.18	40.35
347.54	33.90
347.90	16.79
348.27	11.62
348.63	14.85
348.99	12.27
349.36	11.94
349.72	-16.46
350.08	-14.85
350.45	-5.81
350.81	-10.01
351.17	-0.65
351.53	-10.01
351.90	3.87
352.26	5.81
352.62	4.52
352.98	5.81
353.35	13.88
353.71	-3.23
354.07	11.94
354.44	-3.55
354.80	11.62
355.16	10.98
355.52	15.17
355.88	4.84
356.25	6.13
356.61	-5.17
356.97	-15.82
357.33	-21.63
357.70	-15.50
358.06	-21.31
358.42	-20.66
358.78	-33.57
359.15	-43.58
359.51	-25.18
359.87	-47.46
360.23	-51.01
360.59	-51.33
360.95	-33.57
361.32	-18.72
361.68	-1.94
362.04	-12.91
362.40	16.14
362.76	9.68
363.13	16.14
363.49	13.56
363.85	25.18
364.21	15.17
364.57	27.76
364.93	22.92
365.30	33.57
365.66	28.09
366.02	15.82
366.38	15.50
366.74	37.13
367.10	40.35
367.46	30.99
367.83	28.09
368.19	32.61
368.55	45.84
368.91	25.50
369.27	7.43
369.63	-2.91
369.99	-17.11
370.35	-23.24
370.71	-20.34
371.08	-20.98
371.44	-15.17
371.80	-5.17
372.16	-0.32
372.52	8.72
372.88	19.37
373.24	20.98
373.60	33.57
373.96	40.35
374.32	35.19
374.68	38.09
375.04	48.10
375.40	50.36
375.76	56.50
376.13	51.98
376.49	44.87
376.85	40.68
377.21	44.23
377.57	47.46
377.93	37.45
378.29	43.58
378.65	24.86
379.01	30.99
379.37	20.66
379.73	5.81
380.09	4.84
380.45	16.14
380.81	-9.68
381.17	-10.98
381.53	-10.33
381.89	4.52
382.25	16.79
382.61	14.20
382.97	0.32
383.33	3.23
383.69	7.43
384.05	14.20
384.41	18.72
384.77	28.73
385.13	28.09
385.49	14.85
385.85	35.51
386.20	37.13
386.56	23.57
386.92	3.23
387.28	-22.60
387.64	-27.44
388.00	-30.99
388.36	-54.24
388.72	-35.83
389.08	-46.81
389.44	-42.94
389.80	-37.77
390.16	-37.45
390.52	-13.88
390.88	-10.33
391.23	-29.70
391.59	-3.23
391.95	8.07
392.31	0.97
392.67	-6.13
393.03	1.94
393.39	4.84
393.75	15.82
394.11	3.55
394.46	8.72
394.82	25.50
395.18	28.41
395.54	27.76
395.90	28.73
396.26	14.53
396.62	5.81
396.97	-12.27
397.33	-8.07
397.69	0.97
398.05	-20.34
398.41	-18.72
398.77	-15.50
399.12	-0.97
399.48	13.88
399.84	-2.26
400.20	-16.79
400.56	1.61
400.91	-11.62
401.27	-24.21
401.63	-25.50
401.99	-31.31
402.35	-23.24
402.70	-20.66
403.06	-32.93
403.42	-20.98
403.78	0.65
404.14	5.49
404.49	2.58
404.85	7.75
405.21	19.37
405.57	25.83
405.92	20.98
406.28	9.04
406.64	8.72
407.00	12.27
407.35	0.00
407.71	-4.84
408.07	-11.30
408.43	-5.49
408.78	-4.20
409.14	-8.72
409.50	4.52
409.85	6.13
410.21	-1.61
410.57	0.00
410.93	6.13
411.28	23.24
411.64	24.21
412.00	15.50
412.35	24.86
412.71	42.29
413.07	35.51
413.42	23.57
413.78	10.33
414.14	17.43
414.49	14.20
414.85	22.28
415.21	4.52
415.56	12.59
415.92	41.00
416.28	43.26
416.63	32.93
416.99	34.54
417.35	14.85
417.70	15.50
418.06	20.02
418.42	12.59
418.77	7.10
419.13	7.75
419.48	11.62
419.84	18.72
420.20	28.09
420.55	10.33
420.91	0.97
421.27	24.86
421.62	36.16
421.98	35.51
422.33	26.47
422.69	21.31
423.05	23.89
423.40	16.46
423.76	-1.61
424.11	-25.18
424.47	-29.05
424.82	-11.30
425.18	-14.20
425.54	-2.58
425.89	-10.33
426.25	-10.33
426.60	-11.30
426.96	-17.11
427.31	-26.80
427.67	-20.34
428.02	-22.28
428.38	-19.69
428.73	-28.09
429.09	-13.56
429.44	-0.32
429.80	9.04
430.15	17.76
430.51	35.51
430.86	55.20
431.22	55.85
431.57	47.46
431.93	30.99
432.28	28.41
432.64	17.76
432.99	9.36
433.35	9.68
433.70	8.39
434.06	28.73
434.41	30.67
434.77	28.09
435.12	34.22
435.48	4.20
435.83	-11.62
436.19	15.50
436.54	1.61
436.89	8.39
437.25	12.91
437.60	1.29
437.96	15.50
438.31	38.09
438.67	16.14
439.02	23.24
439.37	10.65
439.73	11.62
440.08	36.80
440.44	39.71
440.79	20.66
441.15	8.72
441.50	-8.07
441.85	4.52
442.21	-1.61
442.56	-10.33
442.91	-10.33
443.27	-19.05
443.62	-5.81
443.98	2.58
444.33	-7.43
444.68	-20.98
445.04	-38.42
445.39	-33.25
445.74	-35.51
446.10	-38.42
446.45	-53.59
446.80	-40.68
447.16	-35.83
447.51	-41.65
447.86	-41.97
448.22	-20.98
448.57	-29.38
448.92	-18.08
449.28	-16.46
449.63	-16.14
449.98	-6.13
450.34	-2.58
450.69	-11.94
451.04	1.94
451.40	16.46
451.75	6.78
452.10	13.56
452.45	10.33
452.81	10.98
453.16	16.46
453.51	17.43
453.86	12.91
454.22	10.98
454.57	7.10
454.92	15.50
455.27	-2.26
455.63	-12.27
455.98	-19.37
456.33	-40.03
456.68	-38.42
457.04	-38.74
457.39	-34.87
457.74	-21.95
458.09	-22.60
458.45	-9.04
458.80	0.65
459.15	5.17
459.50	2.58
459.85	-15.17
460.21	4.52
460.56	2.58
460.91	-2.58
461.26	0.32
461.61	-3.87
461.97	-4.52
462.32	16.79
462.67	-9.04
463.02	15.82
463.37	10.65
463.72	17.76
464.08	12.91
464.43	5.81
464.78	12.27
465.13	29.70
465.48	22.28
465.83	20.34
466.18	5.49
466.54	10.65
466.89	10.33
467.24	10.33
467.59	-4.20
467.94	-1.61
468.29	-1.61
468.64	17.43
468.99	23.24
469.34	32.93
469.70	13.56
470.05	17.43
470.40	-6.78
470.75	-15.82
471.10	-32.93
471.45	-53.91
471.80	-58.11
472.15	-59.72
472.50	-64.24
472.85	-48.42
473.20	-47.46
473.55	-40.68
473.90	-29.05
474.25	-30.35
474.61	-22.92
474.96	-13.24
475.31	-7.75
475.66	6.46
476.01	13.88
476.36	24.21
476.71	38.74
477.06	47.46
477.41	49.72
477.76	31.31
478.11	20.02
478.46	22.28
478.81	10.33
479.16	1.29
479.51	-18.72
479.86	-22.28
480.21	-8.72
480.56	-7.10
480.91	-19.05
481.26	-10.01
481.61	-9.36
481.96	7.43
482.31	4.20
482.66	-20.98
483.00	-20.66
483.35	-19.05
483.70	-25.83
484.05	-15.82
484.40	-17.11
484.75	-16.79
485.10	0.65
485.45	3.23
485.80	-0.97
486.15	-4.52
486.50	-27.12
486.85	-38.09
487.20	-40.68
487.55	-40.35
487.89	-50.68
488.24	-33.25
488.59	-18.40
488.94	-6.78
489.29	-3.55
489.64	14.20
489.99	10.33
490.34	16.46
490.68	6.46
491.03	6.46
491.38	3.55
491.73	5.49
492.08	-6.78
492.43	3.87
492.78	11.62
493.12	10.98
493.47	0.97
493.82	5.81
494.17	7.75
494.52	1.29
494.87	-7.43
495.21	-21.95
495.56	-7.75
495.91	6.13
496.26	16.79
496.61	16.46
496.95	21.31
497.30	24.54
497.65	44.55
498.00	26.15
498.35	16.79
498.69	-7.43
499.04	-23.89
499.39	-35.51
499.74	-34.22
500.08	-39.39
500.43	-40.35
500.78	-50.04
501.13	-51.33
501.48	-46.17
501.82	-34.22
502.17	-41.65
502.52	-38.09
502.86	-32.28
503.21	-26.80
503.56	-10.01
503.91	-10.98
504.25	-12.27
504.60	-4.84
504.95	-10.01
505.30	3.23
505.64	22.92
505.99	18.72
506.34	30.99
506.68	40.68
507.03	31.96
507.38	40.68
507.72	20.98
508.07	-3.55
508.42	0.32
508.76	-13.24
509.11	-18.40
509.46	-5.17
509.80	-23.24
510.15	-12.27
510.50	-0.32
510.84	4.20
511.19	22.60
511.54	18.08
511.88	14.53
512.23	36.16
512.57	39.06
512.92	26.80
513.27	20.34
513.61	23.24
513.96	17.43
514.31	17.11
514.65	6.78
515.00	-7.75
515.34	7.10
515.69	7.10
516.03	6.13
516.38	14.53
516.73	14.20
517.07	-4.84
517.42	-0.65
517.76	1.29
518.11	8.39
518.45	-5.17
518.80	-0.97
519.15	6.46
519.49	25.18
519.84	36.16
520.18	24.86
520.53	0.97
520.87	-3.55
521.22	-24.86
521.56	-42.29
521.91	-61.66
522.25	-71.02
522.60	-59.72
522.94	-31.64
523.29	-34.22
523.63	-13.24
523.98	-15.17
524.32	12.27
524.67	14.20
525.01	7.43
525.36	-3.87
525.70	4.84
526.05	-9.36
526.39	-10.33
526.74	-18.72
527.08	-17.76
527.43	-42.29
527.77	-39.39
528.12	-32.61
528.46	-20.66
528.80	-10.33
529.15	-17.76
529.49	-11.62
529.84	5.17
530.18	1.61
530.53	-11.62
530.87	-8.07
531.21	-2.58
531.56	7.10
531.90	1.61
532.25	3.87
532.59	5.49
532.93	9.36
533.28	-1.94
533.62	4.52
533.97	4.20
534.31	0.97
534.65	5.17
535.00	9.04
535.34	13.24
535.68	21.63
536.03	5.81
536.37	0.65
536.71	7.75
537.06	-1.61
537.40	-7.43
537.74	-1.61
538.09	-18.72
538.43	-7.75
538.77	0.32
539.12	0.97
539.46	13.88
539.80	15.17
540.15	4.20
540.49	26.47
540.83	25.50
541.18	69.73
541.52	61.98
541.86	86.20
542.20	93.94
542.55	105.24
542.89	101.37
543.23	103.31
543.58	58.43
543.92	56.17
544.26	31.64
544.60	30.02
544.95	43.91
545.29	24.86
545.63	13.56
545.97	1.94
546.32	6.13
546.66	6.78
547.00	4.84
547.34	-24.54
547.68	-6.46
548.03	-0.97
548.37	-5.17
548.71	-5.49
549.05	-12.59
549.39	-15.17
549.74	-12.91
550.08	-18.08
550.42	-7.10
550.76	5.81
551.10	-10.33
551.45	-9.36
551.79	-8.39
552.13	-6.46
552.47	-6.78
552.81	-22.28
553.15	-21.31
553.50	-13.88
553.84	-15.50
554.18	-35.19
554.52	-22.28
554.86	-16.79
555.20	-10.98
555.54	-18.72
555.88	-15.50
556.23	-13.88
556.57	12.91
556.91	-8.07
557.25	-2.58
557.59	-26.15
557.93	-9.68
558.27	14.20
558.61	24.54
558.95	29.70
559.29	51.98
559.64	35.51
559.98	29.38
560.32	22.60
560.66	-11.62
561.00	-10.33
561.34	-39.39
561.68	-35.83
562.02	-27.76
562.36	-8.07
562.70	-24.54
563.04	2.58
563.38	-12.27
563.72	2.91
564.06	2.58
564.40	4.52
564.74	15.50
565.08	9.04
565.42	-10.33
565.76	-7.43
566.10	-0.32
566.44	-10.98
566.78	-36.48
567.12	-28.73
567.46	-9.36
567.80	6.78
568.14	12.59
568.48	10.33
568.82	4.52
569.16	-2.26
569.50	-3.23
569.84	-15.17
570.18	-6.46
570.52	-2.58
570.86	-0.65
571.20	11.94
571.54	17.43
571.88	17.11
572.22	30.35
572.55	17.11
572.89	12.59
573.23	30.67
573.57	32.28
573.91	55.53
574.25	36.80
574.59	31.96
574.93	17.11
575.27	17.76
575.61	-12.91
575.94	-18.72
576.28	-15.50
576.62	-5.49
576.96	2.58
577.30	13.56
577.64	11.94
577.98	20.66
578.32	30.67
578.65	24.86
578.99	27.76
579.33	29.38
579.67	27.12
580.01	32.93
580.35	30.35
580.68	21.95
581.02	19.05
581.36	20.02
581.70	4.84
582.04	12.59
582.37	11.30
582.71	4.84
583.05	16.14
583.39	13.88
583.73	8.07
584.06	-0.97
584.40	2.91
584.74	-0.32
585.08	-8.07
585.41	-21.63
585.75	-10.65
586.09	-0.65
586.43	4.52
586.76	-12.27
587.10	-11.62
587.44	12.91
587.78	-2.58
588.11	-17.43
588.45	-36.80
588.79	-42.29
589.13	-30.67
589.46	-22.92
589.80	-40.35
590.14	-30.99
590.47	-28.09
590.81	-29.70
591.15	-18.40
591.48	-22.60
591.82	-30.67
592.16	-41.00
592.50	-31.64
592.83	-36.80
593.17	-25.83
593.51	-25.18
593.84	-24.21
594.18	-17.11
594.51	18.40
594.85	40.68
595.19	51.33
595.52	53.27
595.86	54.24
596.20	44.87
596.53	47.46
596.87	31.64
597.21	-2.26
597.54	9.04
597.88	1.29
598.21	13.24
598.55	21.31
598.89	14.53
599.22	12.91
599.56	18.08
599.89	10.98
600.23	14.20
600.57	-4.20
600.90	-3.87
601.24	-14.85
601.57	-12.27
601.91	-15.82
602.24	-20.98
602.58	-18.40
602.91	-9.36
603.25	-17.11
603.58	-21.31
603.92	-30.99
604.26	-27.12
604.59	-41.65
604.93	-41.32
605.26	-45.84
605.60	-26.15
605.93	-23.24
606.27	-32.61
606.60	-27.76
606.94	-3.55
607.27	1.94
607.61	17.11
607.94	1.61
608.28	8.39
608.61	28.41
608.95	28.09
609.28	40.68
609.61	38.42
609.95	38.74
610.28	45.20
610.62	33.57
610.95	27.12
611.29	26.80
611.62	-0.97
611.96	-8.07
612.29	-15.17
612.62	-16.46
612.96	-2.58
613.29	2.91
613.63	-0.32
613.96	3.23
614.29	11.62
614.63	4.20
614.96	0.32
615.30	-3.23
615.63	1.94
615.96	-0.97
616.30	1.29
616.63	-6.13
616.97	11.30
617.30	20.98
617.63	30.35
617.97	38.42
618.30	38.74
618.63	27.12
618.97	22.92
619.30	2.26
619.63	-7.75
619.97	-15.82
620.30	-20.02
620.63	-9.04
620.97	-6.78
621.30	-14.85
621.63	-17.11
621.97	-3.23
622.30	9.04
622.63	-11.30
622.96	-12.27
623.30	7.10
623.63	35.51
623.96	49.39
624.30	35.51
624.63	25.50
624.96	35.51
625.29	16.14
625.63	13.24
625.96	18.72
626.29	21.31
626.62	19.37
626.96	7.75
627.29	5.49
627.62	13.24
627.95	7.43
628.28	-1.29
628.62	-3.55
628.95	-5.17
629.28	1.61
629.61	9.36
629.95	14.53
630.28	8.72
630.61	2.26
630.94	-1.29
631.27	-6.46
631.60	0.97
631.94	-3.23
632.27	10.65
632.60	26.80
632.93	16.46
633.26	8.39
633.59	17.43
633.93	20.02
634.26	28.09
634.59	9.04
634.92	4.20
635.25	7.43
635.58	15.82
635.91	12.59
636.24	12.59
636.58	15.82
636.91	13.56
637.24	-6.13
637.57	-11.94
637.90	-22.60
638.23	-17.43
638.56	-25.18
638.89	-50.04
639.22	-47.13
639.55	-29.70
639.88	-18.40
640.22	-12.59
640.55	-22.92
640.88	-24.86
641.21	-27.76
641.54	-28.73
641.87	-36.80
642.20	-39.39
642.53	-45.20
642.86	-26.80
643.19	-13.24
643.52	1.94
643.85	-3.87
644.18	2.26
644.51	-4.52
644.84	13.24
645.17	10.01
645.50	-21.95
645.83	-30.35
646.16	-7.75
646.49	-11.62
646.82	4.20
647.15	-10.33
647.48	-18.08
647.81	13.24
648.14	33.25
648.47	16.79
648.80	19.05
649.13	5.81
649.46	10.33
649.79	18.08
650.11	16.14
650.44	2.26
650.77	-10.01
651.10	-17.43
651.43	-6.13
651.76	-18.08
652.09	-21.63
652.42	-25.50
652.75	-27.44
653.08	-10.01
653.41	-3.23
653.73	-6.46
654.06	8.72
654.39	0.97
654.72	-0.00
655.05	-1.94
655.38	-9.36
655.71	-7.10
656.04	-8.39
656.36	-1.29
656.69	9.36
657.02	10.65
657.35	1.29
657.68	6.46
658.01	4.84
658.33	3.55
658.66	-4.20
658.99	-9.36
659.32	-20.34
659.65	-3.87
659.97	-10.01
660.30	-21.63
660.63	-25.83
660.96	-18.72
661.29	-11.30
661.61	-13.56
661.94	-16.79
662.27	-8.72
662.60	5.17
662.92	11.94
663.25	-2.26
663.58	0.32
663.91	-1.94
664.23	-4.52
664.56	-6.78
664.89	-18.08
665.22	-23.57
665.54	-8.72
665.87	-29.05
666.20	-33.57
666.53	-38.74
666.85	-43.91
667.18	-36.16
667.51	-16.46
667.83	-41.97
668.16	-34.22
668.49	-11.94
668.81	0.00
669.14	6.78
669.47	12.91
669.79	2.91
670.12	14.20
670.45	24.54
670.77	26.47
671.10	18.40
671.43	11.94
671.75	9.68
672.08	1.94
672.41	-6.78
672.73	-17.43
673.06	-24.54
673.39	-10.65
673.71	-15.50
674.04	-17.11
674.36	-14.53
674.69	5.81
675.02	8.72
675.34	8.39
675.67	-3.87
675.99	19.05
676.32	27.12
676.64	24.54
676.97	25.18
677.30	27.12
677.62	16.14
677.95	24.54
678.27	1.61
678.60	-1.61
678.92	4.52
679.25	-1.29
679.57	-4.20
679.90	-1.61
680.22	0.97
680.55	25.83
680.88	18.72
681.20	12.91
681.53	2.91
681.85	6.46
682.18	12.27
682.50	-9.04
682.83	-12.59
683.15	-12.91
683.47	-7.43
683.80	-13.56
684.12	-15.17
684.45	-15.82
684.77	-10.98
685.10	-32.61
685.42	-31.64
685.75	-37.13
686.07	-36.80
686.40	-46.81
686.72	-48.10
687.04	-45.20
687.37	-37.77
687.69	-13.24
688.02	-3.23
688.34	7.75
688.67	12.59
688.99	5.17
689.31	15.17
689.64	31.96
689.96	15.50
690.28	14.20
690.61	32.61
690.93	50.68
691.26	71.99
691.58	62.63
691.90	39.71
692.23	19.69
692.55	1.94
692.87	-11.62
693.20	-17.11
693.52	-26.47
693.84	-19.37
694.17	-19.05
694.49	-6.46
694.81	5.49
695.14	-2.58
695.46	-1.61
695.78	5.81
696.11	-3.23
696.43	8.39
696.75	14.20
697.08	0.65
697.40	-2.91
697.72	-6.13
698.04	-13.56
698.37	-12.27
698.69	-11.94
699.01	-13.56
699.33	9.36
699.66	20.02
699.98	20.02
700.30	22.28
700.62	27.44
700.95	19.05
701.27	16.14
701.59	19.69
701.91	16.14
702.24	2.91
702.56	-0.32
702.88	4.52
703.20	9.36
703.52	2.91
703.85	-8.07
704.17	3.23
704.49	14.85
704.81	10.33
705.13	12.91
705.45	27.76
705.78	45.52
706.10	41.00
706.42	16.46
706.74	19.69
707.06	24.86
707.38	36.48
707.71	20.66
708.03	12.27
708.35	6.46
708.67	14.20
708.99	-8.72
709.31	-11.30
709.63	-35.83
709.95	-26.80
710.27	-15.50
710.60	8.07
710.92	16.14
711.24	30.99
711.56	20.66
711.88	19.05
712.20	6.13
712.52	-2.58
712.84	-19.69
713.16	-12.59
713.48	-7.75
713.80	0.65
714.12	1.94
714.44	12.59
714.76	9.68
715.08	8.72
715.40	-15.82
715.72	-26.80
716.04	-32.28
716.36	-24.21
716.68	-20.98
717.00	-12.91
717.32	-15.82
717.64	5.17
717.96	18.40
718.28	32.28
718.60	27.76
718.92	15.17
719.24	-0.65
719.56	10.01
719.88	-5.49
720.20	-22.60
720.52	-25.83
720.84	-35.83
721.16	-20.98
721.48	-6.46
721.80	-10.98
722.12	4.84
722.44	15.17
722.76	12.91
723.08	20.66
723.40	15.50
723.72	2.26
724.03	6.78
724.35	2.58
724.67	10.33
724.99	17.43
725.31	15.17
725.63	17.11
725.95	11.62
726.27	-1.94
726.58	-1.29
726.90	-1.29
727.22	-1.94
727.54	-4.20
727.86	-15.17
728.18	3.23
728.50	2.26
728.81	10.98
729.13	0.32
729.45	-5.81
729.77	3.55
730.09	15.82
730.40	-8.07
730.72	-7.43
731.04	-29.38
731.36	-9.36
731.68	-7.43
731.99	-12.59
732.31	-14.20
732.63	-0.00
732.95	10.33
733.27	25.50
733.58	19.69
733.90	24.54
734.22	22.92
734.54	13.56
734.85	12.91
735.17	20.66
735.49	16.14
735.80	-5.17
736.12	-15.82
736.44	-27.44
736.76	-31.96
737.07	-26.15
737.39	-39.06
737.71	-33.90
738.02	-17.76
738.34	-18.40
738.66	-9.36
738.97	-10.98
739.29	-6.46
739.61	4.20
739.93	6.13
740.24	-10.01
740.56	-10.98
740.87	-3.55
741.19	-2.26
741.51	-21.95
741.82	-32.61
742.14	-20.02
742.46	-16.79
742.77	-20.34
743.09	-11.30
743.41	-11.62
743.72	0.00
744.04	-0.97
744.35	-17.76
744.67	-15.17
744.99	-4.52
745.30	-20.02
745.62	5.17
745.93	7.43
746.25	-7.10
746.56	1.94
746.88	11.94
747.20	26.15
747.51	40.68
747.83	29.38
748.14	27.44
748.46	45.52
748.77	36.16
749.09	41.00
749.40	31.64
749.72	23.57
750.03	11.94
750.35	-0.32
750.66	7.10
750.98	14.53
751.29	5.17
751.61	-2.91
751.92	4.52
752.24	7.10
752.55	19.37
752.87	17.11
753.18	-6.46
753.50	-9.68
753.81	2.26
754.13	-6.78
754.44	-0.97
754.76	-15.17
755.07	-15.50
755.38	-7.75
755.70	-24.86
756.01	-40.68
756.33	-35.83
756.64	-37.77
756.95	-35.83
757.27	-54.56
757.58	-49.07
757.90	-25.50
758.21	-17.76
758.52	-18.40
758.84	-23.57
759.15	-22.28
759.47	-5.49
759.78	-11.30
760.09	-8.07
760.41	-11.30
760.72	-0.32
761.03	1.94
761.35	1.61
761.66	-9.04
761.97	-4.84
762.29	-18.08
762.60	-10.01
762.91	-21.31
763.23	-9.36
763.54	4.52
763.85	19.37
764.17	30.35
764.48	41.97
764.79	25.83
765.10	35.51
765.42	32.28
765.73	21.31
766.04	3.55
766.36	-2.26
766.67	-9.68
766.98	2.26
767.29	-10.33
767.61	-18.08
767.92	-3.55
768.23	-1.29
768.54	-1.94
768.86	-4.84
769.17	-5.49
769.48	-12.27
769.79	4.84
770.10	3.23
770.42	14.20
770.73	25.83
771.04	30.67
771.35	27.12
771.66	44.23
771.98	35.19
772.29	13.24
772.60	-4.52
772.91	-13.24
773.22	-14.53
773.53	-13.88
773.85	-14.85
774.16	-25.83
774.47	-5.17
774.78	4.84
775.09	10.98
775.40	6.13
775.71	15.17
776.02	17.43
776.34	29.38
776.65	31.31
776.96	40.03
777.27	41.00
777.58	39.06
777.89	36.16
778.20	24.54
778.51	14.85
778.82	11.30
779.13	3.87
779.44	-10.65
779.75	-8.39
780.06	-29.05
780.38	-33.25
780.69	-31.31
781.00	-42.61
781.31	-27.44
781.62	-17.43
781.93	-14.53
782.24	-6.78
782.55	2.26
782.86	3.87
783.17	17.11
783.48	5.81
783.79	-4.20
784.10	4.84
784.41	4.84
784.72	-3.55
785.03	-7.43
785.34	-10.33
785.65	-14.85
785.96	-7.10
786.27	-23.57
786.57	-23.24
786.88	-20.02
787.19	-20.98
787.50	-42.94
787.81	-46.49
788.12	-53.59
788.43	-43.58
788.74	-34.22
789.05	-46.17
789.36	-39.39
789.67	-13.24
789.98	-0.32
790.29	0.65
790.59	9.04
790.90	14.53
791.21	29.70
791.52	30.02
791.83	29.38
792.14	26.80
792.45	33.90
792.75	30.02
793.06	8.72
793.37	9.36
793.68	-4.52
793.99	-14.85
794.30	-27.76
794.60	-19.69
794.91	-11.94
795.22	14.20
795.53	6.78
795.84	19.69
796.15	30.02
796.45	32.61
796.76	27.12
797.07	-0.97
797.38	-16.79
797.68	-17.43
797.99	-9.04
798.30	2.58
798.61	1.94
798.91	-13.88
799.22	13.24
799.53	11.62
799.84	23.57
800.14	22.60
800.45	3.87
800.76	20.34
801.07	33.25
801.37	28.09
801.68	19.05
801.99	11.30
802.29	18.08
802.60	10.65
802.91	12.59
803.22	3.87
803.52	2.26
803.83	16.46
804.14	14.85
804.44	2.26
804.75	8.07
805.06	-8.72
805.36	-22.92
805.67	-37.45
805.97	-35.83
806.28	-40.03
806.59	-37.13
806.89	-48.75
807.20	-50.04
807.51	-28.41
807.81	-11.62
808.12	-11.62
808.42	-5.49
808.73	-16.79
809.04	-10.33
809.34	9.36
809.65	12.91
809.95	2.26
810.26	1.29
810.56	-12.27
810.87	-8.72
811.18	5.17
811.48	-2.91
811.79	-14.20
812.09	-10.98
812.40	-8.72
812.70	-16.14
813.01	-22.28
813.31	-42.29
813.62	-42.94
813.92	-23.24
814.23	-29.05
814.53	-35.51
814.84	-4.20
815.14	-9.36
815.45	3.23
815.75	2.91
816.06	1.29
816.36	8.72
816.67	19.05
816.97	10.33
817.28	24.21
817.58	21.63
817.89	11.94
818.19	-10.33
818.49	-19.37
818.80	-23.89
819.10	-31.31
819.41	-31.96
819.71	-27.76
820.01	-13.88
820.32	-3.23
820.62	-16.79
820.93	-27.12
821.23	-16.46
821.53	-16.79
821.84	-19.69
822.14	-31.96
822.45	-31.64
822.75	-3.23
823.05	-2.58
823.36	19.69
823.66	21.95
823.96	21.95
824.27	22.60
824.57	30.35
824.87	24.21
825.18	33.57
825.48	12.27
825.78	11.30
826.09	25.83
826.39	30.02
826.69	11.94
827.00	0.65
827.30	19.69
827.60	22.92
827.90	22.28
828.21	16.14
828.51	21.95
828.81	23.24
829.11	39.06
829.42	21.31
829.72	17.11
830.02	10.65
830.32	9.04
830.63	9.04
830.93	8.39
831.23	0.00
831.53	-2.26
831.84	-6.46
832.14	10.33
832.44	16.79
832.74	3.23
833.04	11.62
833.35	14.85
833.65	18.08
833.95	20.34
834.25	-0.97
834.55	-6.13
834.85	0.32
835.16	18.40
835.46	15.50
835.76	14.20
836.06	16.46
836.36	36.16
836.66	41.65
836.96	34.87
837.26	7.43
837.57	14.20
837.87	12.91
838.17	6.46
838.47	-0.97
838.77	-18.72
839.07	-16.46
839.37	-9.04
839.67	-13.88
839.97	-23.89
840.27	-34.22
840.57	-28.41
840.88	-18.08
841.18	-8.72
841.48	-12.27
841.78	-5.49
842.08	10.01
842.38	12.59
842.68	12.27
842.98	20.98
843.28	16.14
843.58	17.76
843.88	12.27
844.18	-2.58
844.48	19.37
844.78	17.76
845.08	12.91
845.38	16.46
845.68	16.79
845.98	6.13
846.28	-2.58
846.58	-19.05
846.88	-37.13
847.18	-39.06
847.48	-31.31
847.78	-21.63
848.07	-15.82
848.37	2.58
848.67	5.17
848.97	14.53
849.27	12.27
849.57	6.78
849.87	5.17
850.17	-0.97
850.47	-2.58
850.77	3.87
851.07	4.20
851.36	-0.97
851.66	-1.94
851.96	-6.46
852.26	3.87
852.56	13.88
852.86	7.43
853.16	10.65
853.45	10.01
853.75	10.01
854.05	-5.17
854.35	-6.78
854.65	-20.02
854.95	-20.34
855.24	-22.92
855.54	-18.72
855.84	-17.76
856.14	-10.01
856.44	1.61
856.73	16.79
857.03	35.51
857.33	65.86
857.63	65.54
857.93	73.61
858.22	85.87
858.52	80.71
858.82	58.43
859.12	56.50
859.41	35.83
859.71	41.32
860.01	29.05
860.30	30.67
860.60	24.86
860.90	32.61
861.20	12.91
861.49	5.17
861.79	3.87
862.09	8.72
862.38	-10.33
862.68	-11.94
862.98	2.58
863.27	9.36
863.57	28.73
863.87	17.43
864.16	4.84
864.46	36.16
864.76	39.71
865.05	32.28
865.35	26.15
865.65	26.47
865.94	35.19
866.24	26.47
866.54	12.27
866.83	19.05
867.13	24.54
867.42	40.35
867.72	14.20
868.02	-6.13
868.31	11.62
868.61	-13.88
868.90	-25.18
869.20	-25.50
869.49	-42.94
869.79	-40.68
870.08	-27.76
870.38	-27.12
870.68	-8.07
870.97	1.94
871.27	1.61
871.56	-9.36
871.86	-6.78
872.15	-2.26
872.45	-0.32
872.74	8.07
873.04	8.72
873.33	3.23
873.63	5.81
873.92	-2.26
874.22	-0.32
874.51	1.61
874.81	-6.78
875.10	-3.87
875.40	-11.62
875.69	10.65
875.98	21.31
876.28	20.98
876.57	14.53
876.87	13.88
877.16	11.94
877.46	23.24
877.75	12.91
878.04	7.10
878.34	10.33
878.63	21.95
878.93	30.35
879.22	15.17
879.51	15.17
879.81	25.18
880.10	31.64
880.40	20.02
880.69	7.10
880.98	-3.23
881.28	10.01
881.57	8.39
881.86	10.65
882.16	6.46
882.45	21.95
882.74	24.54
883.04	33.57
883.33	28.09
883.62	15.82
883.92	38.42
884.21	-2.26
884.50	-42.94
>>>>>End Processed Spectral Data<<<<<
