SpectraSuite Data File
++++++++++++++++++++++++++++++++++++
Date: Fri Feb 20 12:08:54 EST 2015
User: Administrator
Dark Spectrum Present: Yes
Reference Spectrum Present: No
Number of Sampled Component Spectra: 1
Spectrometers: SB2+H01071
Integration Time (usec): 5000000 (SB2+H01071)
Spectra Averaged: 1 (SB2+H01071)
Boxcar Smoothing: 3 (SB2+H01071)
Correct for Electrical Dark: No (SB2+H01071)
Strobe/Lamp Enabled: Yes (SB2+H01071)
Correct for Detector Non-linearity: No (SB2+H01071)
Correct for Stray Light: No (SB2+H01071)
Number of Pixels in Processed Spectrum: 2048
>>>>>Begin Processed Spectral Data<<<<<
191.06	11.30
191.43	11.30
191.81	11.30
192.19	-21.95
192.56	-26.15
192.94	-36.80
193.31	-47.13
193.69	-46.49
194.07	-43.26
194.44	-28.09
194.82	-19.37
195.19	-20.02
195.57	-20.98
195.95	-2.26
196.32	-5.17
196.70	-14.53
197.07	-18.72
197.45	-34.54
197.83	-31.31
198.20	-23.89
198.58	-30.35
198.95	-25.18
199.33	2.26
199.70	5.17
200.08	11.30
200.46	17.43
200.83	8.39
201.21	0.65
201.58	15.50
201.96	3.87
202.33	0.97
202.71	23.57
203.09	15.50
203.46	15.50
203.84	33.57
204.21	15.17
204.59	30.35
204.96	35.83
205.34	18.40
205.71	36.16
206.09	61.34
206.46	48.42
206.84	57.14
207.21	40.03
207.59	34.87
207.96	36.80
208.34	32.93
208.71	14.85
209.09	7.10
209.46	-9.68
209.84	-3.23
210.21	-1.29
210.59	4.84
210.96	-0.32
211.34	-15.17
211.71	-2.26
212.09	-3.23
212.46	-6.13
212.84	-8.72
213.21	-32.61
213.59	-31.64
213.96	-10.01
214.34	-19.69
214.71	-20.02
215.08	-21.95
215.46	-19.05
215.83	-16.14
216.21	-19.05
216.58	-24.86
216.96	-14.53
217.33	5.49
217.70	-1.61
218.08	-0.32
218.45	4.52
218.83	9.04
219.20	8.39
219.58	-8.07
219.95	-15.50
220.32	8.72
220.70	0.65
221.07	7.10
221.45	-9.36
221.82	-2.26
222.19	20.34
222.57	12.91
222.94	4.20
223.32	-9.04
223.69	6.46
224.06	6.78
224.44	4.20
224.81	-16.79
225.18	-10.98
225.56	-13.88
225.93	9.04
226.31	11.94
226.68	16.14
227.05	18.08
227.43	21.31
227.80	26.15
228.17	10.65
228.55	7.75
228.92	-10.01
229.29	-1.61
229.67	-6.46
230.04	-12.59
230.41	-24.54
230.79	-12.59
231.16	-12.27
231.53	-13.88
231.91	-30.35
232.28	-27.76
232.65	-19.69
233.03	-6.13
233.40	-8.07
233.77	-7.75
234.15	2.91
234.52	21.95
234.89	43.58
235.26	51.01
235.64	36.80
236.01	37.77
236.38	42.61
236.76	29.05
237.13	20.98
237.50	-8.72
237.87	-27.76
238.25	-14.85
238.62	-24.21
238.99	-32.61
239.36	-24.86
239.74	-28.09
240.11	-22.28
240.48	-16.79
240.85	-5.17
241.23	-6.46
241.60	-7.43
241.97	-9.36
242.34	-12.27
242.72	-9.68
243.09	7.10
243.46	-13.88
243.83	9.36
244.20	18.40
244.58	20.66
244.95	19.05
245.32	18.40
245.69	-6.13
246.07	4.20
246.44	-15.17
246.81	-15.50
247.18	-26.15
247.55	-23.57
247.92	-21.31
248.30	-20.98
248.67	-17.43
249.04	-21.31
249.41	-18.72
249.78	-11.30
250.16	15.17
250.53	15.50
250.90	25.83
251.27	15.50
251.64	20.98
252.01	18.08
252.39	20.66
252.76	9.36
253.13	-4.84
253.50	-16.14
253.87	-13.24
254.24	-14.53
254.61	-30.35
254.98	-34.87
255.36	-33.25
255.73	-15.17
256.10	-6.13
256.47	-6.78
256.84	10.65
257.21	26.15
257.58	22.60
257.95	12.59
258.33	16.79
258.70	24.86
259.07	33.25
259.44	23.57
259.81	21.31
260.18	24.54
260.55	18.72
260.92	8.39
261.29	14.53
261.66	11.30
262.03	-0.32
262.40	-12.91
262.77	-15.50
263.15	-18.40
263.52	-25.83
263.89	-31.31
264.26	-45.52
264.63	-26.80
265.00	-17.76
265.37	-6.13
265.74	8.39
266.11	25.50
266.48	35.83
266.85	55.20
267.22	33.90
267.59	33.25
267.96	31.96
268.33	25.83
268.70	20.66
269.07	19.37
269.44	23.57
269.81	46.81
270.18	60.37
270.55	41.00
270.92	38.09
271.29	39.39
271.66	33.90
272.03	28.73
272.40	25.18
272.77	2.58
273.14	24.54
273.51	42.94
273.88	37.13
274.25	30.99
274.62	24.86
274.99	12.27
275.36	31.64
275.73	25.50
276.10	14.85
276.47	13.88
276.84	11.94
277.21	11.62
277.58	7.10
277.94	6.13
278.31	5.81
278.68	5.17
279.05	-6.46
279.42	-9.04
279.79	-3.87
280.16	2.26
280.53	0.65
280.90	-18.40
281.27	-40.68
281.64	-11.30
282.01	-13.56
282.37	-11.30
282.74	-14.53
283.11	-28.41
283.48	-33.57
283.85	-25.18
284.22	-41.00
284.59	-40.68
284.96	-58.76
285.33	-47.78
285.69	-15.82
286.06	5.49
286.43	4.20
286.80	15.82
287.17	28.09
287.54	56.82
287.91	48.75
288.27	29.70
288.64	21.95
289.01	41.97
289.38	24.54
289.75	14.20
290.12	4.84
290.48	3.23
290.85	-8.07
291.22	-17.76
291.59	-33.90
291.96	-36.80
292.33	-39.71
292.69	-62.63
293.06	-50.36
293.43	-38.42
293.80	-27.76
294.17	-12.59
294.53	0.00
294.90	9.36
295.27	42.29
295.64	48.42
296.01	54.24
296.37	60.69
296.74	59.08
297.11	57.46
297.48	47.46
297.84	26.47
298.21	9.04
298.58	-11.30
298.95	-15.17
299.31	-29.38
299.68	-32.61
300.05	-22.28
300.42	-21.31
300.78	-29.70
301.15	-15.50
301.52	-34.22
301.89	-17.76
302.25	-26.15
302.62	-16.46
302.99	-15.82
303.35	-16.14
303.72	-17.43
304.09	0.65
304.46	-5.81
304.82	4.84
305.19	0.32
305.56	2.91
305.92	15.82
306.29	17.43
306.66	26.15
307.02	7.10
307.39	3.87
307.76	-0.65
308.12	-0.65
308.49	-17.43
308.86	-17.11
309.23	-24.54
309.59	-17.11
309.96	-15.50
310.32	-7.43
310.69	-6.78
311.06	5.49
311.42	6.46
311.79	0.00
312.16	5.49
312.52	4.20
312.89	-4.20
313.26	-14.20
313.62	-14.20
313.99	-27.44
314.35	-22.60
314.72	-23.57
315.09	-23.24
315.45	-18.40
315.82	-7.10
316.19	9.04
316.55	13.24
316.92	20.66
317.28	14.85
317.65	11.62
318.02	-6.46
318.38	-16.79
318.75	-22.92
319.11	-20.98
319.48	-30.35
319.84	-2.91
320.21	6.13
320.58	21.95
320.94	46.17
321.31	36.80
321.67	35.51
322.04	35.83
322.40	20.34
322.77	18.08
323.13	14.20
323.50	9.68
323.86	8.07
324.23	24.21
324.60	29.38
324.96	28.73
325.33	15.50
325.69	19.69
326.06	8.39
326.42	5.49
326.79	-19.05
327.15	-25.50
327.52	-36.48
327.88	-21.63
328.25	-17.43
328.61	-15.50
328.98	-2.26
329.34	-4.84
329.71	-6.78
330.07	1.94
330.44	-4.52
330.80	-10.01
331.16	-27.12
331.53	-22.60
331.89	-3.55
332.26	9.04
332.62	2.58
332.99	13.56
333.35	22.28
333.72	34.22
334.08	21.95
334.45	10.65
334.81	16.46
335.17	28.73
335.54	20.66
335.90	22.92
336.27	20.34
336.63	26.47
337.00	39.39
337.36	35.51
337.72	26.15
338.09	22.28
338.45	18.08
338.82	24.21
339.18	18.08
339.54	12.27
339.91	18.08
340.27	20.98
340.63	18.40
341.00	17.43
341.36	23.89
341.73	2.58
342.09	11.62
342.45	-2.91
342.82	4.20
343.18	13.88
343.54	21.63
343.91	14.53
344.27	49.39
344.63	38.74
345.00	60.69
345.36	61.34
345.72	58.43
346.09	35.51
346.45	47.13
346.81	30.99
347.18	35.83
347.54	12.59
347.90	-5.81
348.27	-16.14
348.63	-19.69
348.99	-28.09
349.36	-32.28
349.72	-29.38
350.08	-27.12
350.45	-34.54
350.81	-23.89
351.17	-5.49
351.53	-15.17
351.90	-9.68
352.26	-17.76
352.62	-15.50
352.98	1.94
353.35	3.87
353.71	1.94
354.07	23.24
354.44	10.01
354.80	9.36
355.16	6.46
355.52	-4.84
355.88	-9.36
356.25	-11.94
356.61	-29.38
356.97	-16.14
357.33	-27.44
357.70	-17.76
358.06	-10.65
358.42	-16.14
358.78	-46.17
359.15	-54.88
359.51	-50.36
359.87	-53.59
360.23	-52.94
360.59	-47.13
360.95	-41.00
361.32	-17.11
361.68	-12.91
362.04	-20.98
362.40	-3.23
362.76	-9.68
363.13	-11.94
363.49	-15.82
363.85	9.36
364.21	12.27
364.57	25.50
364.93	20.66
365.30	27.76
365.66	26.47
366.02	25.83
366.38	10.33
366.74	30.35
367.10	31.64
367.46	34.22
367.83	25.50
368.19	49.07
368.55	59.40
368.91	48.10
369.27	35.51
369.63	30.02
369.99	17.43
370.35	12.27
370.71	1.29
371.08	4.20
371.44	9.36
371.80	11.62
372.16	22.92
372.52	36.16
372.88	42.61
373.24	39.71
373.60	41.97
373.96	39.71
374.32	47.78
374.68	34.87
375.04	22.60
375.40	14.53
375.76	3.55
376.13	-11.62
376.49	-8.72
376.85	-24.21
377.21	-14.53
377.57	-2.58
377.93	7.10
378.29	14.53
378.65	22.92
379.01	27.44
379.37	33.25
379.73	2.26
380.09	21.95
380.45	22.28
380.81	7.75
381.17	9.04
381.53	4.52
381.89	-39.39
382.25	-12.91
382.61	-25.50
382.97	-37.45
383.33	-42.61
383.69	-43.91
384.05	-35.51
384.41	10.33
384.77	5.17
385.13	0.65
385.49	5.81
385.85	17.76
386.20	28.73
386.56	8.72
386.92	-7.75
387.28	-6.13
387.64	1.61
388.00	8.39
388.36	6.78
388.72	6.46
389.08	8.07
389.44	24.21
389.80	18.08
390.16	3.23
390.52	1.94
390.88	6.78
391.23	2.91
391.59	18.08
391.95	21.63
392.31	6.78
392.67	-12.27
393.03	-5.49
393.39	-17.76
393.75	-21.63
394.11	-15.17
394.46	-10.65
394.82	14.85
395.18	39.39
395.54	36.80
395.90	50.68
396.26	41.32
396.62	15.82
396.97	-3.87
397.33	-15.50
397.69	-23.57
398.05	-35.83
398.41	-28.41
398.77	-30.35
399.12	-8.07
399.48	4.20
399.84	21.63
400.20	19.05
400.56	23.57
400.91	7.10
401.27	12.91
401.63	-1.61
401.99	-5.49
402.35	-19.05
402.70	-29.05
403.06	-16.79
403.42	-16.79
403.78	-18.72
404.14	-17.76
404.49	-27.12
404.85	-24.86
405.21	-16.14
405.57	-15.82
405.92	-3.87
406.28	-14.85
406.64	-16.79
407.00	-11.62
407.35	-11.30
407.71	-0.97
408.07	-13.88
408.43	-20.98
408.78	-6.46
409.14	10.33
409.50	18.08
409.85	18.40
410.21	30.02
410.57	35.51
410.93	39.71
411.28	37.45
411.64	28.73
412.00	12.27
412.35	16.14
412.71	10.01
413.07	6.78
413.42	-3.87
413.78	8.39
414.14	8.72
414.49	27.12
414.85	34.87
415.21	27.12
415.56	32.28
415.92	57.14
416.28	41.32
416.63	42.29
416.99	34.87
417.35	15.17
417.70	12.59
418.06	7.75
418.42	0.97
418.77	2.91
419.13	1.61
419.48	6.78
419.84	-1.61
420.20	6.78
420.55	-3.55
420.91	-11.94
421.27	8.07
421.62	17.43
421.98	5.17
422.33	22.28
422.69	25.50
423.05	24.86
423.40	21.31
423.76	7.75
424.11	-8.07
424.47	14.53
424.82	31.64
425.18	15.82
425.54	30.99
425.89	23.24
426.25	15.50
426.60	7.75
426.96	-10.33
427.31	-15.82
427.67	-11.94
428.02	-25.18
428.38	-15.50
428.73	-18.72
429.09	-2.91
429.44	-2.58
429.80	-16.79
430.15	-0.97
430.51	19.69
430.86	11.94
431.22	15.50
431.57	4.84
431.93	14.53
432.28	12.27
432.64	-8.39
432.99	-10.01
433.35	11.62
433.70	7.75
434.06	9.68
434.41	-3.87
434.77	4.20
435.12	17.76
435.48	-2.26
435.83	-9.68
436.19	5.49
436.54	6.46
436.89	10.33
437.25	12.59
437.60	3.23
437.96	9.36
438.31	30.02
438.67	7.43
439.02	7.10
439.37	4.84
439.73	-11.94
440.08	-11.62
440.44	-17.76
440.79	-50.36
441.15	-46.49
441.50	-35.51
441.85	-41.32
442.21	-26.47
442.56	-23.24
442.91	-20.02
443.27	-25.50
443.62	-8.39
443.98	-14.85
444.33	-19.05
444.68	-22.28
445.04	-27.12
445.39	-14.20
445.74	1.61
446.10	-10.33
446.45	-16.14
446.80	20.02
447.16	12.59
447.51	20.98
447.86	16.14
448.22	10.65
448.57	-0.32
448.92	-5.81
449.28	-21.95
449.63	-16.46
449.98	-14.20
450.34	-10.98
450.69	-14.85
451.04	0.00
451.40	12.91
451.75	13.24
452.10	18.40
452.45	6.78
452.81	11.94
453.16	19.37
453.51	16.14
453.86	20.34
454.22	17.43
454.57	-3.23
454.92	-2.26
455.27	-19.05
455.63	-14.20
455.98	-20.66
456.33	-39.06
456.68	-50.04
457.04	-34.54
457.39	-34.54
457.74	-30.99
458.09	-43.91
458.45	-47.78
458.80	-40.35
459.15	-12.91
459.50	-25.50
459.85	-36.48
460.21	-18.72
460.56	-16.14
460.91	-2.58
461.26	8.07
461.61	-29.38
461.97	-19.69
462.32	-0.32
462.67	-28.41
463.02	-15.50
463.37	-9.68
463.72	-17.43
464.08	-14.53
464.43	-25.50
464.78	-19.37
465.13	4.20
465.48	-0.65
465.83	-5.81
466.18	-8.07
466.54	18.40
466.89	32.61
467.24	16.46
467.59	5.17
467.94	1.61
468.29	0.32
468.64	3.55
468.99	-10.98
469.34	-16.46
469.70	-18.40
470.05	-21.31
470.40	-30.02
470.75	-30.02
471.10	-29.05
471.45	-32.93
471.80	-47.13
472.15	-41.65
472.50	-40.68
472.85	-22.28
473.20	-13.56
473.55	-7.75
473.90	-19.69
474.25	-2.91
474.61	11.62
474.96	15.17
475.31	3.23
475.66	-2.58
476.01	-6.78
476.36	14.53
476.71	31.64
477.06	31.31
477.41	46.49
477.76	43.58
478.11	51.01
478.46	53.91
478.81	53.27
479.16	29.05
479.51	26.80
479.86	5.49
480.21	19.37
480.56	5.49
480.91	2.91
481.26	13.88
481.61	31.31
481.96	26.15
482.31	25.18
482.66	15.17
483.00	20.02
483.35	12.59
483.70	-23.57
484.05	-38.74
484.40	-51.98
484.75	-56.50
485.10	-66.83
485.45	-62.95
485.80	-63.92
486.15	-32.93
486.50	-33.57
486.85	-25.83
487.20	-16.14
487.55	-2.91
487.89	-14.20
488.24	-0.65
488.59	3.87
488.94	6.46
489.29	8.39
489.64	6.13
489.99	16.14
490.34	18.72
490.68	18.40
491.03	13.56
491.38	21.95
491.73	32.61
492.08	49.39
492.43	39.71
492.78	37.45
493.12	32.61
493.47	22.92
493.82	11.62
494.17	-9.04
494.52	-23.89
494.87	-25.50
495.21	-35.19
495.56	-30.02
495.91	-23.57
496.26	-7.75
496.61	14.20
496.95	16.79
497.30	14.53
497.65	28.09
498.00	16.46
498.35	16.79
498.69	4.52
499.04	-12.91
499.39	-23.57
499.74	-23.57
500.08	-24.54
500.43	-11.30
500.78	-20.66
501.13	-23.89
501.48	-30.67
501.82	-14.53
502.17	-15.17
502.52	-9.68
502.86	-29.70
503.21	-33.57
503.56	-29.70
503.91	-31.96
504.25	-36.80
504.60	-45.20
504.95	-47.13
505.30	-27.76
505.64	-14.53
505.99	-11.62
506.34	3.23
506.68	1.94
507.03	11.30
507.38	18.08
507.72	11.30
508.07	-3.23
508.42	-2.58
508.76	-8.39
509.11	1.61
509.46	16.79
509.80	4.84
510.15	1.61
510.50	15.17
510.84	15.50
511.19	31.96
511.54	22.28
511.88	7.75
512.23	33.25
512.57	36.80
512.92	28.09
513.27	30.67
513.61	19.05
513.96	12.27
514.31	30.67
514.65	10.33
515.00	-4.20
515.34	-0.97
515.69	-7.10
516.03	5.49
516.38	10.98
516.73	-13.88
517.07	-28.41
517.42	-9.04
517.76	-5.17
518.11	-8.39
518.45	-16.14
518.80	-26.15
519.15	-15.17
519.49	12.91
519.84	20.02
520.18	0.97
520.53	-10.65
520.87	-26.15
521.22	-19.05
521.56	-8.07
521.91	-21.63
522.25	-41.00
522.60	-18.08
522.94	10.65
523.29	25.50
523.63	22.92
523.98	4.52
524.32	6.13
524.67	3.87
525.01	-7.75
525.36	-28.09
525.70	-18.40
526.05	-29.05
526.39	-43.91
526.74	-37.45
527.08	-21.95
527.43	-26.80
527.77	-20.34
528.12	-30.35
528.46	-9.04
528.80	18.40
529.15	19.69
529.49	7.10
529.84	18.08
530.18	20.34
530.53	5.81
530.87	2.91
531.21	-3.55
531.56	-2.26
531.90	6.46
532.25	5.81
532.59	13.88
532.93	17.11
533.28	20.02
533.62	19.05
533.97	2.58
534.31	-3.55
534.65	-4.84
535.00	1.94
535.34	3.23
535.68	13.56
536.03	0.97
536.37	8.39
536.71	11.62
537.06	10.01
537.40	-5.49
537.74	3.87
538.09	-16.46
538.43	-7.75
538.77	-10.01
539.12	-6.78
539.46	3.87
539.80	8.07
540.15	3.55
540.49	23.89
540.83	46.49
541.18	109.44
541.52	116.54
541.86	126.55
542.20	125.90
542.55	120.42
542.89	119.13
543.23	105.57
543.58	47.46
543.92	32.61
544.26	11.94
544.60	10.65
544.95	44.55
545.29	36.80
545.63	34.22
545.97	34.87
546.32	29.05
546.66	46.49
547.00	63.92
547.34	25.83
547.68	31.64
548.03	22.28
548.37	7.43
548.71	11.62
549.05	-6.13
549.39	-10.65
549.74	-7.43
550.08	-14.53
550.42	-8.39
550.76	3.23
551.10	-13.24
551.45	-11.62
551.79	-29.05
552.13	-33.25
552.47	-31.31
552.81	-40.35
553.15	-33.90
553.50	-15.17
553.84	-11.62
554.18	-9.36
554.52	12.27
554.86	15.50
555.20	22.60
555.54	4.84
555.88	6.13
556.23	-5.17
556.57	-12.27
556.91	-28.09
557.25	-24.54
557.59	-21.31
557.93	-1.61
558.27	25.18
558.61	45.20
558.95	56.50
559.29	77.48
559.64	66.50
559.98	49.07
560.32	41.00
560.66	9.04
561.00	9.36
561.34	-13.24
561.68	-20.02
562.02	-25.50
562.36	-0.32
562.70	2.26
563.04	9.36
563.38	2.91
563.72	6.13
564.06	-0.32
564.40	14.85
564.74	8.07
565.08	0.65
565.42	4.84
565.76	0.32
566.10	15.82
566.44	13.56
566.78	6.46
567.12	-0.65
567.46	10.65
567.80	28.41
568.14	44.23
568.48	50.36
568.82	60.37
569.16	34.54
569.50	35.51
569.84	20.02
570.18	8.39
570.52	-1.94
570.86	2.26
571.20	4.52
571.54	24.86
571.88	39.39
572.22	51.01
572.55	34.87
572.89	34.54
573.23	37.45
573.57	14.85
573.91	18.72
574.25	5.17
574.59	-9.04
574.93	-6.78
575.27	-14.20
575.61	-27.12
575.94	-10.98
576.28	-4.52
576.62	10.65
576.96	14.53
577.30	21.31
577.64	36.80
577.98	31.31
578.32	39.06
578.65	23.57
578.99	10.98
579.33	7.10
579.67	7.43
580.01	10.98
580.35	28.09
580.68	17.43
581.02	32.61
581.36	27.76
581.70	27.76
582.04	20.34
582.37	11.94
582.71	-1.29
583.05	0.65
583.39	-18.08
583.73	-21.63
584.06	-16.79
584.40	-13.88
584.74	-19.69
585.08	-29.70
585.41	-28.41
585.75	-8.72
586.09	4.20
586.43	1.29
586.76	-10.98
587.10	-19.37
587.44	-9.04
587.78	-11.62
588.11	-29.38
588.45	-34.54
588.79	-33.57
589.13	-19.05
589.46	-16.14
589.80	-14.85
590.14	-10.33
590.47	-15.50
590.81	-23.24
591.15	-21.95
591.48	-29.70
591.82	-20.98
592.16	-25.18
592.50	-27.76
592.83	-26.80
593.17	-16.46
593.51	-10.33
593.84	-0.32
594.18	-4.84
594.51	13.56
594.85	17.11
595.19	36.16
595.52	27.44
595.86	15.82
596.20	24.21
596.53	33.90
596.87	17.43
597.21	21.31
597.54	17.11
597.88	22.92
598.21	36.80
598.55	35.51
598.89	18.08
599.22	18.08
599.56	1.29
599.89	10.01
600.23	19.69
600.57	11.30
600.90	-2.26
601.24	4.20
601.57	0.97
601.91	11.94
602.24	-2.91
602.58	-13.56
602.91	-12.91
603.25	-12.59
603.58	-10.65
603.92	1.29
604.26	0.97
604.59	-6.46
604.93	0.65
605.26	9.68
605.60	16.79
605.93	26.80
606.27	8.72
606.60	6.13
606.94	14.85
607.27	0.00
607.61	-2.91
607.94	-10.33
608.28	-23.89
608.61	-9.36
608.95	-0.65
609.28	1.61
609.61	12.27
609.95	11.94
610.28	16.14
610.62	24.54
610.95	31.64
611.29	7.10
611.62	-1.61
611.96	-2.58
612.29	3.55
612.62	0.00
612.96	-8.72
613.29	-18.72
613.63	-11.94
613.96	3.55
614.29	9.04
614.63	1.94
614.96	5.81
615.30	19.37
615.63	27.44
615.96	31.96
616.30	20.66
616.63	23.89
616.97	41.97
617.30	48.75
617.63	37.13
617.97	31.96
618.30	17.76
618.63	14.85
618.97	-1.29
619.30	-21.31
619.63	-32.28
619.97	-27.76
620.30	-32.61
620.63	-22.92
620.97	-20.34
621.30	-0.32
621.63	-17.11
621.97	-3.23
622.30	2.58
622.63	19.05
622.96	35.51
623.30	26.80
623.63	26.80
623.96	45.52
624.30	35.19
624.63	35.19
624.96	17.43
625.29	6.46
625.63	17.11
625.96	17.43
626.29	28.41
626.62	28.73
626.96	24.86
627.29	30.35
627.62	35.83
627.95	31.31
628.28	27.44
628.62	29.38
628.95	9.68
629.28	3.23
629.61	5.49
629.95	-0.65
630.28	12.91
630.61	5.49
630.94	-4.20
631.27	15.50
631.60	22.60
631.94	22.60
632.27	28.09
632.60	19.37
632.93	10.98
633.26	4.52
633.59	3.23
633.93	7.43
634.26	3.55
634.59	-1.61
634.92	-1.29
635.25	12.91
635.58	9.04
635.91	3.55
636.24	-15.82
636.58	-8.07
636.91	-8.72
637.24	-11.30
637.57	-12.91
637.90	-19.69
638.23	-22.28
638.56	-10.01
638.89	-12.59
639.22	-8.39
639.55	2.91
639.88	-18.40
640.22	-16.79
640.55	-9.04
640.88	-12.27
641.21	-26.15
641.54	-30.35
641.87	-26.15
642.20	-15.17
642.53	-10.98
642.86	-5.81
643.19	2.91
643.52	-0.97
643.85	-4.52
644.18	-25.18
644.51	-19.37
644.84	-5.81
645.17	-7.75
645.50	-17.43
645.83	-6.13
646.16	12.91
646.49	15.82
646.82	32.93
647.15	25.18
647.48	18.40
647.81	15.17
648.14	24.21
648.47	11.30
648.80	15.82
649.13	-0.00
649.46	1.29
649.79	5.81
650.11	10.33
650.44	18.08
650.77	16.14
651.10	12.91
651.43	18.40
651.76	10.65
652.09	-1.61
652.42	-12.27
652.75	-30.67
653.08	-20.66
653.41	-22.28
653.73	-32.93
654.06	-24.86
654.39	-20.66
654.72	-2.26
655.05	1.94
655.38	-12.27
655.71	2.26
656.04	11.30
656.36	9.68
656.69	17.43
657.02	12.27
657.35	-4.20
657.68	7.75
658.01	-0.32
658.33	7.43
658.66	11.30
658.99	19.69
659.32	11.62
659.65	26.80
659.97	11.94
660.30	9.68
660.63	-7.43
660.96	-3.87
661.29	4.20
661.61	16.14
661.94	18.40
662.27	26.15
662.60	23.89
662.92	24.21
663.25	16.14
663.58	2.91
663.91	-11.30
664.23	-8.07
664.56	4.20
664.89	6.46
665.22	2.91
665.54	16.46
665.87	16.14
666.20	4.84
666.53	-16.46
666.85	-28.09
667.18	-29.70
667.51	-19.05
667.83	-37.45
668.16	-36.48
668.49	-21.63
668.81	-10.33
669.14	-5.17
669.47	13.88
669.79	15.82
670.12	17.11
670.45	7.10
670.77	16.79
671.10	20.34
671.43	12.27
671.75	-0.65
672.08	-19.37
672.41	-30.99
672.73	-18.08
673.06	-33.25
673.39	-19.69
673.71	-14.85
674.04	-19.37
674.36	-2.58
674.69	25.18
675.02	12.59
675.34	17.43
675.67	10.33
675.99	10.33
676.32	18.40
676.64	19.05
676.97	8.72
677.30	34.22
677.62	35.51
677.95	35.19
678.27	25.83
678.60	20.66
678.92	26.47
679.25	40.03
679.57	20.02
679.90	14.53
680.22	23.89
680.55	25.83
680.88	17.43
681.20	0.00
681.53	-17.76
681.85	1.94
682.18	7.43
682.50	-8.72
682.83	-12.91
683.15	1.61
683.47	9.36
683.80	2.58
684.12	-17.11
684.45	-19.37
684.77	-16.79
685.10	-16.79
685.42	-41.00
685.75	-43.26
686.07	-41.00
686.40	-40.03
686.72	-38.09
687.04	-54.56
687.37	-46.49
687.69	-5.17
688.02	-2.26
688.34	5.49
688.67	-2.91
688.99	-9.04
689.31	-4.52
689.64	11.62
689.96	5.49
690.28	16.46
690.61	16.46
690.93	31.31
691.26	41.97
691.58	43.58
691.90	34.22
692.23	4.52
692.55	-11.62
692.87	-11.30
693.20	-13.24
693.52	-9.04
693.84	-6.78
694.17	-16.14
694.49	10.01
694.81	23.57
695.14	17.76
695.46	15.50
695.78	12.91
696.11	1.94
696.43	5.81
696.75	-6.78
697.08	-22.28
697.40	-28.09
697.72	-22.92
698.04	-14.85
698.37	-1.61
698.69	-0.65
699.01	7.10
699.33	20.34
699.66	35.83
699.98	24.86
700.30	14.53
700.62	13.56
700.95	-3.87
701.27	-1.29
701.59	-3.55
701.91	-12.59
702.24	-20.34
702.56	-23.57
702.88	-18.08
703.20	13.24
703.52	4.52
703.85	-8.07
704.17	-0.97
704.49	10.65
704.81	-2.91
705.13	-1.29
705.45	-10.98
705.78	-21.63
706.10	-24.86
706.42	-26.80
706.74	-20.66
707.06	-5.17
707.38	-8.39
707.71	-7.43
708.03	1.94
708.35	8.72
708.67	4.20
708.99	-22.92
709.31	-26.80
709.63	-22.60
709.95	-29.05
710.27	-26.47
710.60	-6.78
710.92	-1.61
711.24	7.10
711.56	7.75
711.88	-6.13
712.20	-17.43
712.52	-19.69
712.84	-28.41
713.16	-32.93
713.48	-20.66
713.80	-21.63
714.12	-22.92
714.44	-12.27
714.76	4.20
715.08	14.85
715.40	22.60
715.72	16.79
716.04	18.72
716.36	43.58
716.68	53.27
717.00	48.10
717.32	39.39
717.64	43.58
717.96	45.20
718.28	48.75
718.60	37.77
718.92	32.28
719.24	8.72
719.56	4.84
719.88	-9.68
720.20	-23.24
720.52	-23.89
720.84	-37.45
721.16	-35.51
721.48	-4.84
721.80	-6.13
722.12	4.52
722.44	33.57
722.76	37.77
723.08	48.10
723.40	42.94
723.72	19.69
724.03	14.53
724.35	7.75
724.67	-6.13
724.99	-6.78
725.31	-3.87
725.63	-10.33
725.95	-11.94
726.27	-20.34
726.58	-21.95
726.90	-24.54
727.22	-24.54
727.54	-38.74
727.86	-31.96
728.18	-19.69
728.50	-24.54
728.81	-3.23
729.13	9.68
729.45	12.27
729.77	41.97
730.09	63.28
730.40	49.39
730.72	63.60
731.04	31.64
731.36	33.25
731.68	30.35
731.99	0.65
732.31	-23.24
732.63	-26.80
732.95	-27.76
733.27	-4.20
733.58	1.61
733.90	-2.26
734.22	4.52
734.54	16.14
734.85	25.18
735.17	32.61
735.49	15.82
735.80	-0.32
736.12	-2.91
736.44	-9.36
736.76	-16.46
737.07	-10.33
737.39	-15.82
737.71	-6.46
738.02	7.10
738.34	4.52
738.66	11.62
738.97	-0.97
739.29	-9.36
739.61	-1.29
739.93	1.29
740.24	-21.63
740.56	-21.63
740.87	-22.28
741.19	-15.50
741.51	-3.23
741.82	-9.04
742.14	-6.46
742.46	0.65
742.77	-15.50
743.09	0.32
743.41	-4.84
743.72	-20.66
744.04	-33.25
744.35	-35.19
744.67	-32.28
744.99	-19.37
745.30	-44.87
745.62	-10.98
745.93	4.52
746.25	-0.97
746.56	2.91
746.88	1.29
747.20	21.31
747.51	33.57
747.83	30.35
748.14	23.89
748.46	34.87
748.77	20.98
749.09	31.96
749.40	19.37
749.72	16.79
750.03	-3.23
750.35	-8.39
750.66	4.20
750.98	17.11
751.29	10.65
751.61	16.79
751.92	26.80
752.24	27.44
752.55	31.31
752.87	18.72
753.18	-5.81
753.50	-10.33
753.81	-12.91
754.13	-26.15
754.44	-25.50
754.76	-8.07
755.07	-1.29
755.38	13.88
755.70	8.07
756.01	11.62
756.33	23.24
756.64	20.02
756.95	-3.87
757.27	-7.10
757.58	9.68
757.90	27.12
758.21	22.28
758.52	27.44
758.84	30.67
759.15	47.78
759.47	62.31
759.78	45.52
760.09	42.29
760.41	37.45
760.72	49.39
761.03	34.87
761.35	1.29
761.66	-27.12
761.97	-28.73
762.29	-40.03
762.60	-41.97
762.91	-59.40
763.23	-44.55
763.54	-10.98
763.85	10.01
764.17	24.54
764.48	35.19
764.79	29.05
765.10	31.64
765.42	29.38
765.73	9.36
766.04	4.84
766.36	-5.17
766.67	-29.70
766.98	-13.88
767.29	-23.57
767.61	-24.21
767.92	-7.75
768.23	-15.17
768.54	-19.37
768.86	0.32
769.17	8.39
769.48	23.57
769.79	27.44
770.10	13.56
770.42	15.17
770.73	26.80
771.04	24.21
771.35	7.43
771.66	-6.78
771.98	-10.01
772.29	-10.65
772.60	-22.60
772.91	-33.25
773.22	-30.67
773.53	-20.34
773.85	-7.75
774.16	-9.04
774.47	-4.84
774.78	5.81
775.09	21.31
775.40	10.98
775.71	5.17
776.02	3.87
776.34	16.14
776.65	32.28
776.96	43.58
777.27	26.47
777.58	37.13
777.89	36.80
778.20	11.30
778.51	-6.46
778.82	-18.40
779.13	-20.66
779.44	-11.94
779.75	-23.24
780.06	-24.54
780.38	-7.75
780.69	-1.29
781.00	-1.29
781.31	-4.84
781.62	-8.07
781.93	4.20
782.24	2.26
782.55	-0.97
782.86	4.20
783.17	6.13
783.48	-8.72
783.79	-6.78
784.10	-11.62
784.41	-3.55
784.72	-8.07
785.03	-15.50
785.34	-24.86
785.65	-20.02
785.96	-27.44
786.27	-19.69
786.57	-35.83
786.88	-31.64
787.19	-35.83
787.50	-40.03
787.81	-34.87
788.12	-39.71
788.43	-32.28
788.74	2.58
789.05	-6.46
789.36	-0.32
789.67	14.53
789.98	24.86
790.29	32.93
790.59	21.31
790.90	0.32
791.21	3.55
791.52	2.91
791.83	-10.33
792.14	-8.72
792.45	13.24
792.75	18.40
793.06	12.91
793.37	28.41
793.68	27.76
793.99	28.73
794.30	23.24
794.60	-1.61
794.91	5.81
795.22	26.47
795.53	13.56
795.84	19.69
796.15	34.87
796.45	40.68
796.76	56.82
797.07	45.52
797.38	17.11
797.68	19.37
797.99	24.21
798.30	24.21
798.61	7.43
798.91	-3.55
799.22	-1.29
799.53	33.25
799.84	27.76
800.14	17.43
800.45	14.53
800.76	30.35
801.07	31.64
801.37	25.83
801.68	-6.78
801.99	-3.55
802.29	-1.29
802.60	-20.98
802.91	-23.57
803.22	-30.35
803.52	-22.92
803.83	-8.72
804.14	-16.46
804.44	-25.18
804.75	-20.02
805.06	-17.11
805.36	-25.18
805.67	-36.48
805.97	-41.00
806.28	-29.05
806.59	-8.72
806.89	-21.63
807.20	-36.80
807.51	-17.76
807.81	-3.23
808.12	0.65
808.42	-1.61
808.73	-17.76
809.04	3.87
809.34	10.33
809.65	9.36
809.95	-5.81
810.26	-13.24
810.56	-30.67
810.87	-30.99
811.18	-33.90
811.48	-30.35
811.79	-39.39
812.09	-33.25
812.40	-32.28
812.70	-13.24
813.01	-10.33
813.31	-16.14
813.62	-20.02
813.92	-12.27
814.23	-23.24
814.53	-27.76
814.84	-16.79
815.14	-29.05
815.45	-25.18
815.75	-18.72
816.06	-11.62
816.36	6.78
816.67	28.73
816.97	29.05
817.28	45.84
817.58	51.33
817.89	33.25
818.19	21.31
818.49	5.81
818.80	-5.81
819.10	-20.98
819.41	-17.76
819.71	-22.28
820.01	-16.46
820.32	-18.08
820.62	-26.15
820.93	-47.78
821.23	-37.13
821.53	-40.35
821.84	-36.80
822.14	-32.61
822.45	-36.80
822.75	-22.28
823.05	-1.29
823.36	8.72
823.66	8.72
823.96	4.20
824.27	6.78
824.57	21.31
824.87	18.08
825.18	15.17
825.48	-6.78
825.78	7.43
826.09	22.28
826.39	26.15
826.69	11.62
827.00	9.68
827.30	19.69
827.60	28.41
827.90	13.56
828.21	27.12
828.51	28.73
828.81	26.80
829.11	25.18
829.42	19.05
829.72	16.79
830.02	15.82
830.32	0.00
830.63	-1.29
830.93	0.00
831.23	4.84
831.53	10.33
831.84	16.14
832.14	26.15
832.44	32.61
832.74	17.11
833.04	21.31
833.35	33.25
833.65	34.22
833.95	28.41
834.25	18.40
834.55	-0.97
834.85	33.25
835.16	50.68
835.46	38.42
835.76	36.80
836.06	40.68
836.36	56.50
836.66	64.89
836.96	48.10
837.26	34.54
837.57	42.61
837.87	13.24
838.17	19.37
838.47	-0.32
838.77	1.61
839.07	-10.98
839.37	-9.04
839.67	-4.52
839.97	14.53
840.27	5.49
840.57	-0.97
840.88	-11.62
841.18	-7.75
841.48	-15.17
841.78	-28.09
842.08	-28.73
842.38	-28.09
842.68	-8.72
842.98	-4.52
843.28	-1.61
843.58	1.29
843.88	-2.26
844.18	-3.23
844.48	-5.49
844.78	-5.49
845.08	17.76
845.38	22.28
845.68	15.82
845.98	17.43
846.28	10.33
846.58	12.91
846.88	-15.17
847.18	-33.25
847.48	-32.93
847.78	-23.89
848.07	-18.08
848.37	-7.75
848.67	-1.29
848.97	16.46
849.27	22.92
849.57	32.28
849.87	40.68
850.17	38.09
850.47	34.87
850.77	28.41
851.07	15.82
851.36	-6.78
851.66	-33.90
851.96	-52.94
852.26	-51.65
852.56	-37.45
852.86	-39.06
853.16	-44.55
853.45	-36.16
853.75	-17.11
854.05	-7.10
854.35	-6.78
854.65	-15.17
854.95	-30.02
855.24	-8.72
855.54	2.58
855.84	-3.55
856.14	-2.91
856.44	9.36
856.73	15.50
857.03	33.90
857.33	31.31
857.63	29.05
857.93	25.50
858.22	16.46
858.52	16.14
858.82	0.97
859.12	-1.29
859.41	0.97
859.71	2.58
860.01	2.58
860.30	26.80
860.60	10.65
860.90	19.05
861.20	10.98
861.49	2.26
861.79	-5.49
862.09	-0.32
862.38	-26.15
862.68	-28.73
862.98	-18.72
863.27	-2.91
863.57	19.05
863.87	10.33
864.16	-0.97
864.46	2.58
864.76	0.97
865.05	0.97
865.35	-26.80
865.65	-47.46
865.94	-41.32
866.24	-37.45
866.54	-30.99
866.83	-21.31
867.13	-14.20
867.42	10.98
867.72	14.20
868.02	18.08
868.31	18.40
868.61	25.50
868.90	23.89
869.20	13.56
869.49	10.01
869.79	9.36
870.08	4.52
870.38	14.53
870.68	12.59
870.97	14.85
871.27	5.49
871.56	-20.98
871.86	-15.50
872.15	-13.24
872.45	-23.24
872.74	-20.34
873.04	-24.21
873.33	-25.18
873.63	-2.91
873.92	-17.76
874.22	-17.11
874.51	-1.29
874.81	9.68
875.10	14.85
875.40	9.04
875.69	6.78
875.98	9.04
876.28	20.66
876.57	17.11
876.87	-3.87
877.16	-2.26
877.46	10.98
877.75	17.11
878.04	20.66
878.34	4.20
878.63	-5.81
878.93	-0.32
879.22	-11.62
879.51	-14.53
879.81	-12.91
880.10	-8.72
880.40	-7.10
880.69	-18.08
880.98	-21.95
881.28	-11.62
881.57	-16.46
881.86	-28.73
882.16	-23.89
882.45	-6.78
882.74	5.49
883.04	17.43
883.33	22.60
883.62	12.59
883.92	79.09
884.21	63.28
884.50	-85.87
>>>>>End Processed Spectral Data<<<<<
