SpectraSuite Data File
++++++++++++++++++++++++++++++++++++
Date: Fri Feb 20 12:07:39 EST 2015
User: Administrator
Dark Spectrum Present: Yes
Reference Spectrum Present: No
Number of Sampled Component Spectra: 1
Spectrometers: SB2+H01071
Integration Time (usec): 5000000 (SB2+H01071)
Spectra Averaged: 1 (SB2+H01071)
Boxcar Smoothing: 3 (SB2+H01071)
Correct for Electrical Dark: No (SB2+H01071)
Strobe/Lamp Enabled: Yes (SB2+H01071)
Correct for Detector Non-linearity: No (SB2+H01071)
Correct for Stray Light: No (SB2+H01071)
Number of Pixels in Processed Spectrum: 2048
>>>>>Begin Processed Spectral Data<<<<<
191.06	-20.34
191.43	-20.34
191.81	-20.34
192.19	-12.91
192.56	-14.20
192.94	-15.17
193.31	-35.19
193.69	-30.02
194.07	-46.81
194.44	-38.74
194.82	-33.57
195.19	-28.73
195.57	-22.92
195.95	0.32
196.32	-9.04
196.70	-4.20
197.07	-7.10
197.45	-5.17
197.83	15.50
198.20	16.14
198.58	11.94
198.95	13.56
199.33	12.27
199.70	18.08
200.08	3.87
200.46	-14.53
200.83	-14.20
201.21	-0.32
201.58	13.56
201.96	28.09
202.33	21.95
202.71	34.54
203.09	29.05
203.46	20.66
203.84	9.04
204.21	3.23
204.59	2.26
204.96	12.59
205.34	11.94
205.71	24.86
206.09	22.92
206.46	17.11
206.84	11.30
207.21	8.07
207.59	3.55
207.96	-10.01
208.34	-20.66
208.71	-9.68
209.09	-5.49
209.46	-5.49
209.84	5.17
210.21	6.46
210.59	22.92
210.96	10.01
211.34	2.91
211.71	-8.39
212.09	-4.52
212.46	-16.79
212.84	-23.57
213.21	-43.26
213.59	-11.30
213.96	-3.87
214.34	3.87
214.71	7.43
215.08	-1.94
215.46	8.07
215.83	22.28
216.21	-0.32
216.58	-5.81
216.96	-5.49
217.33	-9.04
217.70	0.32
218.08	-10.65
218.45	-14.85
218.83	-14.85
219.20	-20.34
219.58	-14.20
219.95	-21.63
220.32	-10.65
220.70	0.97
221.07	-0.65
221.45	2.58
221.82	12.91
222.19	9.04
222.57	1.94
222.94	-11.30
223.32	-18.72
223.69	-5.81
224.06	-11.30
224.44	-10.01
224.81	-10.33
225.18	-5.49
225.56	6.13
225.93	10.01
226.31	1.29
226.68	3.87
227.05	-8.72
227.43	3.55
227.80	14.53
228.17	6.78
228.55	6.78
228.92	-6.78
229.29	-3.87
229.67	-3.87
230.04	-26.47
230.41	-22.92
230.79	-35.19
231.16	-23.24
231.53	-6.13
231.91	-4.84
232.28	5.81
232.65	33.57
233.03	30.99
233.40	66.50
233.77	47.13
234.15	43.91
234.52	46.49
234.89	59.08
235.26	48.42
235.64	40.68
236.01	12.91
236.38	26.15
236.76	23.89
237.13	-4.20
237.50	-12.91
237.87	-24.21
238.25	-19.05
238.62	-20.34
238.99	-18.72
239.36	-12.59
239.74	9.36
240.11	0.97
240.48	10.01
240.85	25.18
241.23	29.05
241.60	19.37
241.97	16.46
242.34	8.39
242.72	8.72
243.09	12.27
243.46	-16.14
243.83	-17.43
244.20	-7.10
244.58	-13.24
244.95	0.32
245.32	-4.20
245.69	-16.46
246.07	-5.81
246.44	-8.07
246.81	-7.75
247.18	-11.30
247.55	-16.46
247.92	-8.72
248.30	0.65
248.67	-1.61
249.04	-2.26
249.41	-10.33
249.78	-1.29
250.16	15.17
250.53	19.37
250.90	6.46
251.27	0.32
251.64	-1.94
252.01	7.43
252.39	6.46
252.76	-4.20
253.13	-14.20
253.50	-20.98
253.87	-12.59
254.24	-10.98
254.61	-15.17
254.98	-27.44
255.36	-33.90
255.73	-26.80
256.10	-4.84
256.47	0.65
256.84	19.37
257.21	17.43
257.58	23.24
257.95	22.60
258.33	31.64
258.70	21.31
259.07	15.82
259.44	2.91
259.81	3.23
260.18	3.55
260.55	13.88
260.92	-3.87
261.29	9.36
261.66	1.61
262.03	10.33
262.40	8.07
262.77	16.46
263.15	6.78
263.52	9.68
263.89	8.07
264.26	17.43
264.63	3.87
265.00	-3.87
265.37	10.01
265.74	17.11
266.11	14.53
266.48	22.28
266.85	24.21
267.22	10.33
267.59	7.10
267.96	-12.91
268.33	-15.50
268.70	-1.29
269.07	0.65
269.44	10.65
269.81	26.47
270.18	45.52
270.55	37.45
270.92	19.05
271.29	24.21
271.66	10.33
272.03	9.04
272.40	12.59
272.77	-20.34
273.14	3.55
273.51	32.28
273.88	-4.52
274.25	-11.62
274.62	-19.69
274.99	-6.78
275.36	28.73
275.73	12.59
276.10	10.33
276.47	28.09
276.84	42.29
277.21	30.35
277.58	3.55
277.94	-7.75
278.31	-2.26
278.68	-9.68
279.05	-3.23
279.42	-7.10
279.79	-9.36
280.16	-4.52
280.53	-3.23
280.90	-23.24
281.27	-31.31
281.64	-13.88
282.01	-26.47
282.37	-12.27
282.74	-2.26
283.11	-6.78
283.48	-7.10
283.85	-2.26
284.22	-8.39
284.59	-5.49
284.96	-19.05
285.33	-8.39
285.69	-4.52
286.06	1.94
286.43	2.26
286.80	-4.84
287.17	12.91
287.54	24.86
287.91	13.56
288.27	13.88
288.64	16.46
289.01	39.71
289.38	44.23
289.75	27.12
290.12	29.70
290.48	15.17
290.85	16.14
291.22	3.87
291.59	-18.08
291.96	-30.02
292.33	-31.64
292.69	-43.26
293.06	-15.50
293.43	-24.54
293.80	-15.50
294.17	-10.33
294.53	-24.21
294.90	-22.60
295.27	-9.36
295.64	-16.46
296.01	-3.87
296.37	4.84
296.74	4.84
297.11	17.76
297.48	12.91
297.84	2.58
298.21	-4.84
298.58	-4.52
298.95	-7.43
299.31	-22.92
299.68	-8.39
300.05	3.55
300.42	8.39
300.78	1.94
301.15	-2.26
301.52	-12.91
301.89	10.65
302.25	2.58
302.62	-5.17
302.99	1.94
303.35	4.52
303.72	-4.20
304.09	0.00
304.46	-9.68
304.82	-12.59
305.19	-1.29
305.56	-13.56
305.92	-1.61
306.29	16.14
306.66	24.54
307.02	5.17
307.39	11.62
307.76	7.10
308.12	14.20
308.49	-5.81
308.86	-18.08
309.23	-8.72
309.59	10.33
309.96	-1.94
310.32	-0.32
310.69	-0.32
311.06	12.59
311.42	11.94
311.79	9.04
312.16	-10.65
312.52	-14.53
312.89	-9.04
313.26	-18.08
313.62	-26.80
313.99	-25.18
314.35	-38.09
314.72	-18.72
315.09	-18.08
315.45	-20.34
315.82	-9.04
316.19	-9.68
316.55	-24.54
316.92	-17.76
317.28	-22.92
317.65	-20.34
318.02	-38.09
318.38	-48.10
318.75	-54.24
319.11	-45.20
319.48	-46.49
319.84	-21.95
320.21	-17.11
320.58	1.29
320.94	12.59
321.31	18.40
321.67	19.37
322.04	11.62
322.40	-10.98
322.77	-4.84
323.13	4.52
323.50	4.52
323.86	8.72
324.23	15.50
324.60	23.89
324.96	29.70
325.33	13.56
325.69	-8.72
326.06	-14.20
326.42	-15.82
326.79	-24.86
327.15	-16.46
327.52	-25.83
327.88	-11.62
328.25	-4.52
328.61	10.33
328.98	17.76
329.34	30.67
329.71	15.82
330.07	20.02
330.44	14.85
330.80	19.05
331.16	-13.24
331.53	-4.84
331.89	-9.36
332.26	16.14
332.62	18.40
332.99	36.16
333.35	31.64
333.72	52.62
334.08	50.04
334.45	50.36
334.81	43.26
335.17	37.77
335.54	19.05
335.90	9.04
336.27	-2.26
336.63	-5.81
337.00	-8.39
337.36	-14.20
337.72	-12.91
338.09	-15.50
338.45	-5.17
338.82	1.61
339.18	-11.94
339.54	-1.61
339.91	3.87
340.27	1.61
340.63	3.55
341.00	-7.10
341.36	1.94
341.73	1.29
342.09	-4.52
342.45	-9.68
342.82	-2.58
343.18	-1.29
343.54	20.66
343.91	22.28
344.27	35.19
344.63	33.57
345.00	51.98
345.36	51.65
345.72	50.36
346.09	39.39
346.45	47.78
346.81	40.35
347.18	50.68
347.54	29.70
347.90	25.50
348.27	20.34
348.63	5.49
348.99	-13.88
349.36	-13.88
349.72	-15.17
350.08	-18.72
350.45	-23.89
350.81	-15.50
351.17	8.39
351.53	7.43
351.90	22.60
352.26	2.58
352.62	-2.58
352.98	-1.94
353.35	3.23
353.71	-2.91
354.07	9.68
354.44	-7.43
354.80	6.78
355.16	12.27
355.52	13.56
355.88	8.07
356.25	9.36
356.61	8.07
356.97	0.97
357.33	3.55
357.70	9.68
358.06	12.59
358.42	3.55
358.78	-17.76
359.15	-31.64
359.51	-32.61
359.87	-54.24
360.23	-54.88
360.59	-48.75
360.95	-46.81
361.32	-25.83
361.68	-17.11
362.04	-20.66
362.40	-4.52
362.76	-8.07
363.13	-20.98
363.49	-8.72
363.85	0.65
364.21	-10.33
364.57	13.24
364.93	20.34
365.30	30.99
365.66	46.81
366.02	39.71
366.38	29.70
366.74	48.75
367.10	50.36
367.46	47.46
367.83	39.71
368.19	41.00
368.55	42.94
368.91	35.51
369.27	20.02
369.63	17.76
369.99	-8.72
370.35	-19.05
370.71	-21.31
371.08	-15.50
371.44	-5.17
371.80	12.27
372.16	18.72
372.52	33.90
372.88	56.82
373.24	41.97
373.60	38.74
373.96	34.22
374.32	37.13
374.68	35.19
375.04	41.00
375.40	28.73
375.76	42.94
376.13	51.65
376.49	49.72
376.85	43.58
377.21	39.39
377.57	30.35
377.93	25.18
378.29	28.41
378.65	38.42
379.01	39.06
379.37	19.69
379.73	8.07
380.09	32.93
380.45	38.09
380.81	39.39
381.17	24.86
381.53	28.73
381.89	32.93
382.25	45.52
382.61	37.13
382.97	32.61
383.33	8.72
383.69	0.65
384.05	5.49
384.41	13.24
384.77	-7.43
385.13	-16.46
385.49	-18.40
385.85	-10.33
386.20	-0.32
386.56	-13.88
386.92	-21.95
387.28	-27.76
387.64	-23.89
388.00	-25.50
388.36	-14.53
388.72	-13.88
389.08	-19.37
389.44	-20.98
389.80	-8.39
390.16	-2.58
390.52	-6.78
390.88	-20.66
391.23	-39.71
391.59	-23.24
391.95	-23.24
392.31	-26.80
392.67	-56.50
393.03	-32.28
393.39	-36.16
393.75	-7.75
394.11	-14.85
394.46	-3.55
394.82	6.78
395.18	27.12
395.54	14.20
395.90	21.31
396.26	-4.20
396.62	-10.98
396.97	-15.50
397.33	-16.46
397.69	-25.18
398.05	-34.54
398.41	-23.57
398.77	-24.21
399.12	-20.02
399.48	-15.50
399.84	-16.79
400.20	-14.20
400.56	0.32
400.91	-7.43
401.27	-20.02
401.63	-10.98
401.99	-10.01
402.35	-7.75
402.70	-19.37
403.06	-29.70
403.42	-34.22
403.78	-3.55
404.14	-0.32
404.49	-8.72
404.85	-15.50
405.21	0.65
405.57	-1.61
405.92	18.08
406.28	3.23
406.64	-12.59
407.00	-15.50
407.35	3.23
407.71	10.01
408.07	15.82
408.43	-0.97
408.78	10.33
409.14	20.02
409.50	34.54
409.85	17.76
410.21	6.78
410.57	6.13
410.93	8.72
411.28	3.23
411.64	0.97
412.00	6.13
412.35	10.33
412.71	16.46
413.07	10.33
413.42	7.43
413.78	15.82
414.14	17.43
414.49	1.61
414.85	17.43
415.21	1.29
415.56	9.04
415.92	25.18
416.28	16.14
416.63	19.05
416.99	33.25
417.35	11.62
417.70	18.40
418.06	3.23
418.42	5.81
418.77	19.69
419.13	17.76
419.48	9.36
419.84	5.49
420.20	11.30
420.55	30.35
420.91	22.92
421.27	41.00
421.62	51.65
421.98	56.17
422.33	64.57
422.69	63.92
423.05	61.34
423.40	46.81
423.76	22.28
424.11	6.46
424.47	-12.59
424.82	6.46
425.18	10.65
425.54	13.88
425.89	22.28
426.25	21.31
426.60	14.85
426.96	18.08
427.31	4.84
427.67	11.30
428.02	11.94
428.38	4.52
428.73	-7.10
429.09	-8.72
429.44	-5.17
429.80	-10.01
430.15	-9.36
430.51	-7.10
430.86	4.52
431.22	11.94
431.57	17.43
431.93	21.95
432.28	42.61
432.64	21.63
432.99	27.44
433.35	39.71
433.70	26.47
434.06	39.06
434.41	39.39
434.77	25.83
435.12	48.10
435.48	24.21
435.83	5.17
436.19	17.43
436.54	4.20
436.89	8.72
437.25	4.52
437.60	-7.75
437.96	8.72
438.31	15.50
438.67	13.88
439.02	25.50
439.37	10.33
439.73	-15.17
440.08	-8.07
440.44	-20.66
440.79	-39.06
441.15	-46.17
441.50	-59.08
441.85	-68.12
442.21	-34.87
442.56	-41.65
442.91	-44.87
443.27	-24.21
443.62	-14.85
443.98	-9.68
444.33	0.32
444.68	-11.94
445.04	-13.56
445.39	-1.61
445.74	-8.07
446.10	-9.36
446.45	-18.40
446.80	14.53
447.16	18.72
447.51	20.98
447.86	15.50
448.22	21.31
448.57	28.09
448.92	31.31
449.28	9.04
449.63	2.91
449.98	8.07
450.34	14.20
450.69	10.65
451.04	6.46
451.40	14.53
451.75	9.68
452.10	11.30
452.45	9.04
452.81	14.20
453.16	17.11
453.51	12.27
453.86	9.04
454.22	9.68
454.57	18.08
454.92	16.79
455.27	6.46
455.63	13.56
455.98	18.08
456.33	19.05
456.68	6.46
457.04	1.29
457.39	-1.29
457.74	9.68
458.09	-13.24
458.45	-2.58
458.80	-2.58
459.15	13.56
459.50	11.62
459.85	6.13
460.21	3.55
460.56	9.68
460.91	10.01
461.26	8.72
461.61	-8.72
461.97	-10.33
462.32	4.84
462.67	-13.24
463.02	-0.65
463.37	-9.68
463.72	0.97
464.08	14.85
464.43	4.84
464.78	11.94
465.13	23.57
465.48	19.37
465.83	18.72
466.18	16.46
466.54	17.43
466.89	25.50
467.24	19.05
467.59	17.11
467.94	8.72
468.29	4.20
468.64	-5.49
468.99	-0.65
469.34	-1.94
469.70	-18.40
470.05	-17.11
470.40	-16.46
470.75	-24.86
471.10	-35.83
471.45	-47.13
471.80	-44.55
472.15	-37.13
472.50	-48.42
472.85	-33.57
473.20	-34.54
473.55	-13.88
473.90	-9.04
474.25	-10.65
474.61	-13.56
474.96	-8.39
475.31	-30.99
475.66	-19.69
476.01	-21.31
476.36	-21.63
476.71	-7.43
477.06	11.30
477.41	31.64
477.76	36.16
478.11	34.54
478.46	32.93
478.81	41.32
479.16	17.43
479.51	-7.75
479.86	-20.66
480.21	-11.94
480.56	-10.98
480.91	-8.39
481.26	-14.53
481.61	19.69
481.96	36.48
482.31	22.92
482.66	17.11
483.00	16.79
483.35	11.94
483.70	1.94
484.05	-30.02
484.40	-33.57
484.75	-26.47
485.10	-28.73
485.45	-38.09
485.80	-57.14
486.15	-47.13
486.50	-45.52
486.85	-56.82
487.20	-47.46
487.55	-44.23
487.89	-32.61
488.24	-19.05
488.59	0.32
488.94	7.10
489.29	9.68
489.64	17.11
489.99	7.75
490.34	17.76
490.68	29.38
491.03	15.50
491.38	33.25
491.73	36.80
492.08	17.43
492.43	37.77
492.78	19.37
493.12	23.57
493.47	5.49
493.82	-11.94
494.17	3.23
494.52	12.27
494.87	-3.55
495.21	-13.56
495.56	-16.79
495.91	7.10
496.26	20.98
496.61	8.07
496.95	11.30
497.30	23.57
497.65	41.97
498.00	23.89
498.35	32.61
498.69	26.15
499.04	21.63
499.39	8.72
499.74	0.65
500.08	-2.58
500.43	13.56
500.78	-15.17
501.13	-27.44
501.48	-15.17
501.82	-4.84
502.17	-2.26
502.52	-7.10
502.86	-26.47
503.21	-14.85
503.56	-17.76
503.91	-29.38
504.25	-41.65
504.60	-39.39
504.95	-35.51
505.30	-14.53
505.64	-15.50
505.99	4.20
506.34	17.76
506.68	27.12
507.03	20.02
507.38	23.24
507.72	18.40
508.07	3.23
508.42	-10.65
508.76	-41.97
509.11	-37.13
509.46	-27.12
509.80	-33.90
510.15	-38.09
510.50	-23.57
510.84	-18.72
511.19	-6.13
511.54	-6.78
511.88	-0.32
512.23	21.95
512.57	29.05
512.92	22.92
513.27	26.80
513.61	49.72
513.96	47.78
514.31	36.16
514.65	28.09
515.00	10.98
515.34	15.17
515.69	14.53
516.03	7.10
516.38	-3.55
516.73	-6.78
517.07	-28.41
517.42	-11.94
517.76	-15.17
518.11	-22.60
518.45	-33.90
518.80	-25.50
519.15	-21.31
519.49	-1.29
519.84	11.30
520.18	8.39
520.53	10.01
520.87	19.37
521.22	10.01
521.56	18.08
521.91	15.17
522.25	1.94
522.60	22.28
522.94	30.35
523.29	24.86
523.63	26.15
523.98	21.95
524.32	24.86
524.67	15.17
525.01	2.91
525.36	5.49
525.70	9.36
526.05	6.46
526.39	-7.10
526.74	-12.59
527.08	-5.81
527.43	-34.54
527.77	-38.74
528.12	-33.90
528.46	-8.07
528.80	0.32
529.15	-1.61
529.49	-1.61
529.84	25.18
530.18	26.47
530.53	20.02
530.87	18.08
531.21	15.17
531.56	18.72
531.90	10.33
532.25	4.20
532.59	-4.20
532.93	-4.20
533.28	-9.04
533.62	2.58
533.97	-0.32
534.31	0.00
534.65	3.55
535.00	28.41
535.34	28.41
535.68	32.93
536.03	10.98
536.37	20.66
536.71	29.70
537.06	40.68
537.40	15.82
537.74	15.50
538.09	-2.58
538.43	16.79
538.77	8.07
539.12	10.98
539.46	10.01
539.80	18.08
540.15	8.39
540.49	30.02
540.83	32.28
541.18	70.38
541.52	73.61
541.86	70.38
542.20	65.21
542.55	67.79
542.89	62.63
543.23	60.37
543.58	12.59
543.92	-3.23
544.26	-21.95
544.60	-24.86
544.95	-5.81
545.29	-28.73
545.63	-35.19
545.97	-30.67
546.32	-18.08
546.66	-6.13
547.00	10.33
547.34	-1.94
547.68	13.24
548.03	12.59
548.37	-0.65
548.71	-8.72
549.05	-12.91
549.39	-27.12
549.74	-33.90
550.08	-45.52
550.42	-37.45
550.76	-25.83
551.10	-36.16
551.45	-30.02
551.79	-38.42
552.13	-39.71
552.47	-18.72
552.81	-32.28
553.15	-12.91
553.50	-2.58
553.84	-2.91
554.18	11.94
554.52	20.98
554.86	15.50
555.20	29.38
555.54	9.68
555.88	10.33
556.23	15.17
556.57	10.65
556.91	2.91
557.25	1.29
557.59	-11.30
557.93	-8.39
558.27	-8.39
558.61	-10.98
558.95	-9.36
559.29	11.30
559.64	12.59
559.98	-1.94
560.32	11.30
560.66	4.84
561.00	16.46
561.34	-5.49
561.68	-17.76
562.02	-26.47
562.36	8.72
562.70	6.78
563.04	8.72
563.38	-12.27
563.72	4.52
564.06	9.36
564.40	9.68
564.74	-1.94
565.08	-23.89
565.42	-25.50
565.76	-8.07
566.10	0.97
566.44	-12.59
566.78	-21.95
567.12	-29.70
567.46	-16.46
567.80	-18.40
568.14	-26.15
568.48	-29.05
568.82	-19.05
569.16	-10.98
569.50	-19.69
569.84	-27.76
570.18	5.49
570.52	9.04
570.86	8.39
571.20	5.17
571.54	-6.13
571.88	10.65
572.22	16.46
572.55	-0.32
572.89	-0.65
573.23	9.04
573.57	2.26
573.91	24.21
574.25	19.69
574.59	16.79
574.93	-1.61
575.27	-14.20
575.61	-20.66
575.94	-20.66
576.28	-22.60
576.62	-13.88
576.96	-7.10
577.30	6.46
577.64	14.85
577.98	14.20
578.32	32.93
578.65	39.06
578.99	38.42
579.33	45.20
579.67	40.03
580.01	52.30
580.35	55.20
580.68	43.58
581.02	42.94
581.36	32.28
581.70	20.34
582.04	17.43
582.37	7.75
582.71	-5.81
583.05	-3.55
583.39	-16.46
583.73	-13.56
584.06	-10.98
584.40	4.84
584.74	2.58
585.08	-7.43
585.41	0.32
585.75	0.97
586.09	6.13
586.43	1.29
586.76	-5.81
587.10	-12.91
587.44	11.30
587.78	-2.58
588.11	-13.88
588.45	-23.24
588.79	-33.57
589.13	-27.44
589.46	-35.51
589.80	-38.74
590.14	-26.47
590.47	-25.83
590.81	-30.02
591.15	-32.61
591.48	-49.39
591.82	-34.87
592.16	-52.62
592.50	-62.95
592.83	-63.28
593.17	-54.88
593.51	-42.61
593.84	-34.22
594.18	-30.67
594.51	-2.58
594.85	2.58
595.19	13.24
595.52	14.53
595.86	23.89
596.20	41.00
596.53	46.81
596.87	26.47
597.21	25.18
597.54	36.48
597.88	30.02
598.21	27.76
598.55	18.40
598.89	9.36
599.22	7.43
599.56	-1.61
599.89	-16.79
600.23	-14.53
600.57	-18.08
600.90	-22.60
601.24	-24.54
601.57	-22.60
601.91	-11.30
602.24	3.55
602.58	9.04
602.91	3.23
603.25	-6.13
603.58	-2.58
603.92	-2.58
604.26	-0.65
604.59	-20.66
604.93	-35.83
605.26	-20.98
605.60	-10.01
605.93	-6.78
606.27	-14.85
606.60	-19.05
606.94	1.61
607.27	12.59
607.61	8.72
607.94	7.75
608.28	6.46
608.61	23.24
608.95	21.63
609.28	20.34
609.61	21.95
609.95	30.67
610.28	53.59
610.62	54.24
610.95	46.81
611.29	45.52
611.62	28.73
611.96	36.80
612.29	25.83
612.62	-1.61
612.96	-12.91
613.29	7.43
613.63	8.39
613.96	20.66
614.29	5.81
614.63	2.91
614.96	-2.91
615.30	12.27
615.63	17.76
615.96	2.91
616.30	2.91
616.63	6.46
616.97	23.89
617.30	44.23
617.63	37.77
617.97	21.31
618.30	25.50
618.63	13.88
618.97	10.98
619.30	-5.17
619.63	-15.82
619.97	-16.46
620.30	-12.91
620.63	-1.61
620.97	-3.87
621.30	5.17
621.63	-2.26
621.97	3.87
622.30	5.81
622.63	-1.94
622.96	3.87
623.30	16.79
623.63	19.37
623.96	38.42
624.30	20.98
624.63	18.08
624.96	20.02
625.29	4.20
625.63	-12.91
625.96	-1.94
626.29	-10.01
626.62	1.61
626.96	0.97
627.29	-7.10
627.62	2.58
627.95	13.88
628.28	8.72
628.62	16.79
628.95	8.39
629.28	3.55
629.61	25.50
629.95	19.37
630.28	37.45
630.61	32.61
630.94	23.89
631.27	24.21
631.60	28.41
631.94	19.05
632.27	20.66
632.60	26.15
632.93	14.53
633.26	16.14
633.59	21.31
633.93	23.57
634.26	14.20
634.59	12.59
634.92	-7.43
635.25	-5.17
635.58	-20.98
635.91	-30.35
636.24	-40.35
636.58	-26.80
636.91	-25.18
637.24	-45.84
637.57	-43.58
637.90	-33.90
638.23	-28.73
638.56	-11.94
638.89	-28.41
639.22	-24.54
639.55	-1.29
639.88	5.17
640.22	5.49
640.55	-2.58
640.88	-10.33
641.21	-25.83
641.54	-25.18
641.87	-20.34
642.20	-30.99
642.53	-34.22
642.86	-31.96
643.19	-32.28
643.52	-12.59
643.85	-16.14
644.18	-20.98
644.51	-25.50
644.84	-11.94
645.17	-3.87
645.50	-14.85
645.83	-18.08
646.16	0.00
646.49	12.59
646.82	32.28
647.15	29.38
647.48	36.80
647.81	39.06
648.14	59.08
648.47	42.94
648.80	19.37
649.13	7.10
649.46	2.26
649.79	-8.07
650.11	2.91
650.44	-7.43
650.77	-20.98
651.10	-12.91
651.43	0.00
651.76	-12.27
652.09	-17.76
652.42	-14.20
652.75	-21.31
653.08	-3.23
653.41	7.10
653.73	4.20
654.06	30.35
654.39	38.42
654.72	28.73
655.05	34.22
655.38	20.34
655.71	17.11
656.04	14.53
656.36	2.26
656.69	1.94
657.02	6.13
657.35	-9.04
657.68	2.58
658.01	2.58
658.33	-8.39
658.66	-5.49
658.99	4.52
659.32	7.75
659.65	26.47
659.97	13.56
660.30	-12.27
660.63	-10.98
660.96	-18.72
661.29	-26.47
661.61	-37.77
661.94	-57.14
662.27	-42.61
662.60	-23.57
662.92	-24.86
663.25	-37.77
663.58	-35.19
663.91	-40.03
664.23	-29.05
664.56	-24.86
664.89	-20.34
665.22	-23.57
665.54	1.29
665.87	-15.50
666.20	-10.33
666.53	-20.66
666.85	-30.99
667.18	-31.96
667.51	-22.60
667.83	-34.22
668.16	-13.24
668.49	-4.84
668.81	3.55
669.14	3.23
669.47	8.39
669.79	3.87
670.12	3.23
670.45	-8.07
670.77	-10.33
671.10	-10.33
671.43	-10.01
671.75	-17.76
672.08	-19.05
672.41	-33.25
672.73	-29.38
673.06	-27.76
673.39	-13.24
673.71	-10.01
674.04	-10.65
674.36	3.55
674.69	35.51
675.02	38.09
675.34	38.74
675.67	29.70
675.99	31.64
676.32	42.61
676.64	34.22
676.97	26.47
677.30	32.28
677.62	27.44
677.95	42.61
678.27	34.87
678.60	16.14
678.92	19.05
679.25	9.04
679.57	-8.07
679.90	-12.27
680.22	-17.43
680.55	-11.94
680.88	-12.59
681.20	-12.27
681.53	-6.46
681.85	6.46
682.18	12.27
682.50	-11.94
682.83	-6.13
683.15	-12.27
683.47	-18.40
683.80	-22.92
684.12	-38.42
684.45	-34.22
684.77	-8.39
685.10	-22.60
685.42	-6.46
685.75	13.56
686.07	2.26
686.40	17.11
686.72	12.27
687.04	-10.33
687.37	-6.13
687.69	18.08
688.02	14.53
688.34	26.15
688.67	14.85
688.99	8.39
689.31	12.91
689.64	33.90
689.96	14.53
690.28	10.65
690.61	21.63
690.93	43.26
691.26	57.46
691.58	50.68
691.90	19.37
692.23	8.72
692.55	1.61
692.87	-4.52
693.20	-20.02
693.52	-23.24
693.84	-18.40
694.17	-7.43
694.49	5.81
694.81	10.01
695.14	2.26
695.46	0.32
695.78	3.55
696.11	9.04
696.43	23.24
696.75	17.43
697.08	-8.39
697.40	-6.46
697.72	11.94
698.04	9.36
698.37	16.79
698.69	0.97
699.01	-6.46
699.33	20.02
699.66	21.31
699.98	7.43
700.30	4.52
700.62	-4.52
700.95	6.46
701.27	24.86
701.59	16.79
701.91	17.76
702.24	14.85
702.56	22.92
702.88	34.54
703.20	34.22
703.52	20.34
703.85	6.13
704.17	8.72
704.49	7.10
704.81	-0.00
705.13	-9.36
705.45	-1.94
705.78	-1.29
706.10	12.91
706.42	-13.56
706.74	-0.97
707.06	1.61
707.38	6.46
707.71	-3.55
708.03	-5.17
708.35	-6.78
708.67	11.30
708.99	-2.91
709.31	-10.01
709.63	-16.14
709.95	-17.11
710.27	-8.07
710.60	-4.20
710.92	-8.39
711.24	-0.00
711.56	-0.00
711.88	-4.52
712.20	-11.62
712.52	-20.66
712.84	-31.31
713.16	-23.89
713.48	-13.24
713.80	-4.20
714.12	-11.94
714.44	-10.01
714.76	-7.10
715.08	8.07
715.40	4.20
715.72	-16.14
716.04	-26.15
716.36	-23.89
716.68	-22.60
717.00	-30.99
717.32	-39.06
717.64	-39.71
717.96	-38.42
718.28	-29.05
718.60	-12.27
718.92	-8.39
719.24	-0.97
719.56	10.33
719.88	21.63
720.20	20.66
720.52	17.11
720.84	-5.81
721.16	2.91
721.48	8.39
721.80	-0.65
722.12	-2.58
722.44	2.91
722.76	2.26
723.08	-1.94
723.40	-3.23
723.72	-24.54
724.03	-17.43
724.35	-17.11
724.67	-5.81
724.99	6.13
725.31	23.89
725.63	7.43
725.95	5.49
726.27	-5.17
726.58	-22.60
726.90	-33.57
727.22	-34.22
727.54	-34.87
727.86	-22.60
728.18	3.23
728.50	-2.26
728.81	24.86
729.13	25.83
729.45	7.75
729.77	11.94
730.09	11.62
730.40	-9.68
730.72	-5.49
731.04	-37.77
731.36	-33.57
731.68	-8.07
731.99	-17.11
732.31	-30.02
732.63	-25.18
732.95	-15.82
733.27	3.55
733.58	7.43
733.90	-8.07
734.22	4.52
734.54	36.16
734.85	52.94
735.17	46.81
735.49	45.84
735.80	37.77
736.12	29.70
736.44	17.11
736.76	-7.10
737.07	-9.36
737.39	-7.10
737.71	-17.43
738.02	-18.08
738.34	-17.11
738.66	-18.08
738.97	-29.05
739.29	-31.31
739.61	-23.89
739.93	-19.37
740.24	-11.94
740.56	-2.91
740.87	4.20
741.19	10.98
741.51	-4.84
741.82	-16.79
742.14	-2.91
742.46	-16.46
742.77	-21.63
743.09	-1.29
743.41	-2.91
743.72	-2.58
744.04	-2.58
744.35	-10.65
744.67	-1.94
744.99	-9.04
745.30	-31.96
745.62	-7.75
745.93	17.11
746.25	11.62
746.56	24.21
746.88	25.83
747.20	42.61
747.51	42.61
747.83	30.35
748.14	10.01
748.46	19.05
748.77	10.65
749.09	0.65
749.40	-1.29
749.72	6.78
750.03	10.33
750.35	10.98
750.66	8.07
750.98	18.08
751.29	30.67
751.61	25.83
751.92	29.38
752.24	18.08
752.55	18.40
752.87	14.85
753.18	-7.43
753.50	-16.46
753.81	-7.75
754.13	-20.66
754.44	-21.95
754.76	-15.82
755.07	-8.72
755.38	-0.97
755.70	-4.84
756.01	-18.08
756.33	-10.33
756.64	1.94
756.95	-7.75
757.27	-21.63
757.58	-12.27
757.90	-4.52
758.21	6.13
758.52	10.01
758.84	2.91
759.15	16.14
759.47	48.42
759.78	40.35
760.09	52.30
760.41	45.84
760.72	50.04
761.03	44.87
761.35	25.50
761.66	-7.43
761.97	0.32
762.29	-14.20
762.60	-14.85
762.91	-28.41
763.23	-18.40
763.54	-5.17
763.85	19.05
764.17	20.34
764.48	37.13
764.79	26.80
765.10	22.92
765.42	9.68
765.73	4.52
766.04	2.91
766.36	-2.26
766.67	-26.80
766.98	-10.33
767.29	-7.75
767.61	5.81
767.92	23.24
768.23	3.55
768.54	9.04
768.86	22.92
769.17	25.18
769.48	41.32
769.79	37.45
770.10	35.83
770.42	47.13
770.73	40.68
771.04	31.96
771.35	31.31
771.66	26.47
771.98	23.89
772.29	10.33
772.60	-2.91
772.91	-8.72
773.22	1.29
773.53	-8.39
773.85	-14.53
774.16	-20.98
774.47	-20.34
774.78	-9.04
775.09	-10.01
775.40	-15.82
775.71	-0.00
776.02	9.04
776.34	20.98
776.65	34.22
776.96	44.87
777.27	53.27
777.58	54.24
777.89	39.39
778.20	30.35
778.51	21.63
778.82	4.52
779.13	11.30
779.44	14.53
779.75	14.53
780.06	20.02
780.38	6.13
780.69	8.07
781.00	13.88
781.31	-0.32
781.62	-1.29
781.93	-0.32
782.24	-2.58
782.55	10.01
782.86	11.30
783.17	9.68
783.48	2.26
783.79	2.26
784.10	10.65
784.41	8.07
784.72	4.20
785.03	3.87
785.34	-0.97
785.65	5.81
785.96	9.36
786.27	-0.97
786.57	0.97
786.88	4.52
787.19	-3.23
787.50	-16.46
787.81	-19.37
788.12	-29.38
788.43	-15.82
788.74	-14.85
789.05	-26.47
789.36	-25.18
789.67	0.65
789.98	11.30
790.29	14.53
790.59	2.91
790.90	4.84
791.21	15.17
791.52	24.54
791.83	20.66
792.14	14.53
792.45	19.69
792.75	29.38
793.06	12.91
793.37	25.50
793.68	6.13
793.99	-5.49
794.30	-15.50
794.60	-22.28
794.91	-23.89
795.22	0.00
795.53	-11.30
795.84	19.05
796.15	35.83
796.45	42.94
796.76	45.20
797.07	30.99
797.38	14.85
797.68	15.82
797.99	16.79
798.30	20.98
798.61	16.79
798.91	19.37
799.22	21.63
799.53	38.74
799.84	40.03
800.14	34.22
800.45	24.54
800.76	41.97
801.07	37.77
801.37	42.29
801.68	16.79
801.99	18.08
802.29	16.46
802.60	7.10
802.91	-8.39
803.22	-20.98
803.52	-23.57
803.83	-14.53
804.14	-32.28
804.44	-38.42
804.75	-29.38
805.06	-24.21
805.36	-5.49
805.67	-18.72
805.97	-15.50
806.28	1.61
806.59	2.26
806.89	1.61
807.20	-4.52
807.51	-3.23
807.81	9.04
808.12	-1.94
808.42	1.61
808.73	-5.17
809.04	-2.58
809.34	11.94
809.65	12.59
809.95	11.30
810.26	25.18
810.56	4.84
810.87	11.94
811.18	16.14
811.48	-0.65
811.79	-17.43
812.09	-9.04
812.40	-12.91
812.70	-6.78
813.01	-7.10
813.31	-12.91
813.62	-0.32
813.92	8.72
814.23	-4.52
814.53	-10.33
814.84	15.17
815.14	11.62
815.45	0.00
815.75	-3.55
816.06	-0.97
816.36	13.56
816.67	9.68
816.97	-3.55
817.28	2.58
817.58	16.79
817.89	12.59
818.19	-1.61
818.49	-11.62
818.80	11.94
819.10	6.78
819.41	12.27
819.71	14.20
820.01	9.04
820.32	9.04
820.62	-2.26
820.93	-13.24
821.23	-4.20
821.53	-12.27
821.84	-19.69
822.14	-18.72
822.45	-28.09
822.75	-7.10
823.05	-2.58
823.36	13.24
823.66	21.95
823.96	22.60
824.27	19.37
824.57	52.30
824.87	42.29
825.18	38.09
825.48	5.49
825.78	3.23
826.09	10.65
826.39	30.99
826.69	8.07
827.00	13.24
827.30	23.24
827.60	30.02
827.90	29.70
828.21	30.02
828.51	11.30
828.81	10.33
829.11	2.58
829.42	-21.31
829.72	-19.69
830.02	-21.31
830.32	-19.37
830.63	-8.39
830.93	0.65
831.23	-5.81
831.53	4.84
831.84	0.97
832.14	0.97
832.44	-0.97
832.74	3.23
833.04	-2.91
833.35	9.36
833.65	21.63
833.95	31.96
834.25	25.18
834.55	18.40
834.85	4.52
835.16	24.54
835.46	30.67
835.76	22.92
836.06	19.37
836.36	18.72
836.66	33.90
836.96	33.57
837.26	3.87
837.57	3.55
837.87	-19.69
838.17	-11.30
838.47	-20.98
838.77	-33.57
839.07	-27.76
839.37	-7.43
839.67	-5.49
839.97	10.98
840.27	-4.20
840.57	12.59
840.88	3.55
841.18	11.30
841.48	-4.84
841.78	-13.56
842.08	-6.78
842.38	0.32
842.68	-10.65
842.98	-10.33
843.28	-28.41
843.58	-16.46
843.88	-11.30
844.18	-29.70
844.48	-30.67
844.78	-20.66
845.08	2.91
845.38	13.24
845.68	4.52
845.98	-14.20
846.28	-16.46
846.58	-15.82
846.88	-25.50
847.18	-51.01
847.48	-51.98
847.78	-39.39
848.07	-17.76
848.37	-9.68
848.67	-17.43
848.97	-4.52
849.27	15.82
849.57	15.50
849.87	14.20
850.17	10.65
850.47	10.65
850.77	13.88
851.07	10.65
851.36	0.97
851.66	2.58
851.96	-8.72
852.26	-15.82
852.56	-11.62
852.86	-8.72
853.16	-20.66
853.45	-31.64
853.75	-33.25
854.05	-29.05
854.35	-33.90
854.65	-38.42
854.95	-39.71
855.24	-31.64
855.54	-9.68
855.84	-6.46
856.14	-2.91
856.44	20.66
856.73	40.68
857.03	50.36
857.33	63.92
857.63	47.78
857.93	51.01
858.22	60.69
858.52	42.29
858.82	15.82
859.12	17.11
859.41	8.72
859.71	19.37
860.01	13.88
860.30	12.91
860.60	11.30
860.90	19.69
861.20	23.57
861.49	5.49
861.79	10.33
862.09	12.91
862.38	-16.79
862.68	-17.11
862.98	-2.91
863.27	-22.60
863.57	6.46
863.87	-13.24
864.16	-22.92
864.46	-13.88
864.76	-2.58
865.05	-13.88
865.35	-19.69
865.65	-20.66
865.94	1.61
866.24	5.17
866.54	18.08
866.83	19.05
867.13	33.57
867.42	41.00
867.72	18.08
868.02	-0.32
868.31	4.20
868.61	3.55
868.90	-8.72
869.20	-8.07
869.49	-2.58
869.79	0.65
870.08	-0.32
870.38	2.91
870.68	16.46
870.97	19.37
871.27	2.26
871.56	-15.17
871.86	-6.13
872.15	5.17
872.45	-11.94
872.74	-23.57
873.04	-22.60
873.33	-9.36
873.63	6.13
873.92	1.61
874.22	-6.46
874.51	-1.29
874.81	0.97
875.10	9.36
875.40	0.97
875.69	16.14
875.98	14.20
876.28	22.92
876.57	40.35
876.87	29.05
877.16	23.89
877.46	37.13
877.75	25.83
878.04	40.03
878.34	32.61
878.63	32.93
878.93	51.01
879.22	41.65
879.51	23.57
879.81	28.41
880.10	22.92
880.40	13.56
880.69	12.91
880.98	4.52
881.28	9.36
881.57	12.91
881.86	17.76
882.16	0.65
882.45	10.01
882.74	-0.32
883.04	7.43
883.33	14.85
883.62	4.52
883.92	63.28
884.21	36.16
884.50	-85.87
>>>>>End Processed Spectral Data<<<<<
