SpectraSuite Data File
++++++++++++++++++++++++++++++++++++
Date: Fri Feb 20 12:09:19 EST 2015
User: Administrator
Dark Spectrum Present: Yes
Reference Spectrum Present: No
Number of Sampled Component Spectra: 1
Spectrometers: SB2+H01071
Integration Time (usec): 5000000 (SB2+H01071)
Spectra Averaged: 1 (SB2+H01071)
Boxcar Smoothing: 3 (SB2+H01071)
Correct for Electrical Dark: No (SB2+H01071)
Strobe/Lamp Enabled: Yes (SB2+H01071)
Correct for Detector Non-linearity: No (SB2+H01071)
Correct for Stray Light: No (SB2+H01071)
Number of Pixels in Processed Spectrum: 2048
>>>>>Begin Processed Spectral Data<<<<<
191.06	97.17
191.43	97.17
191.81	97.17
192.19	30.02
192.56	17.43
192.94	14.20
193.31	-16.79
193.69	-5.81
194.07	-3.23
194.44	4.20
194.82	6.13
195.19	4.20
195.57	-16.14
195.95	-3.87
196.32	-4.84
196.70	-17.76
197.07	-23.89
197.45	-35.83
197.83	-22.92
198.20	0.97
198.58	4.84
198.95	-7.75
199.33	10.01
199.70	8.39
200.08	6.78
200.46	-2.58
200.83	-11.30
201.21	-11.62
201.58	0.32
201.96	-4.52
202.33	22.92
202.71	29.70
203.09	10.98
203.46	-2.58
203.84	-6.46
204.21	0.97
204.59	-1.29
204.96	-10.98
205.34	-11.30
205.71	20.98
206.09	33.25
206.46	43.26
206.84	39.71
207.21	40.03
207.59	41.65
207.96	39.39
208.34	19.05
208.71	19.37
209.09	2.91
209.46	-19.05
209.84	-10.01
210.21	-22.60
210.59	-15.17
210.96	-22.92
211.34	-34.22
211.71	-24.21
212.09	-15.82
212.46	-26.15
212.84	-23.24
213.21	-41.00
213.59	-14.85
213.96	-8.72
214.34	-10.01
214.71	-1.61
215.08	7.75
215.46	20.02
215.83	33.25
216.21	12.27
216.58	13.56
216.96	10.98
217.33	12.27
217.70	7.10
218.08	-1.94
218.45	-8.72
218.83	-10.98
219.20	-4.84
219.58	-0.32
219.95	-11.62
220.32	-7.43
220.70	-18.72
221.07	-33.57
221.45	-18.08
221.82	-25.18
222.19	-15.82
222.57	-16.79
222.94	-27.44
223.32	-20.34
223.69	-5.49
224.06	-20.34
224.44	-19.37
224.81	-26.47
225.18	-23.89
225.56	-10.33
225.93	-5.49
226.31	5.49
226.68	10.01
227.05	2.58
227.43	3.23
227.80	6.46
228.17	-5.81
228.55	-8.39
228.92	-24.86
229.29	-25.50
229.67	-5.49
230.04	-19.69
230.41	-10.98
230.79	-9.04
231.16	-2.91
231.53	4.20
231.91	5.81
232.28	-10.01
232.65	-2.91
233.03	-8.39
233.40	7.75
233.77	3.87
234.15	23.89
234.52	38.09
234.89	46.17
235.26	47.13
235.64	54.24
236.01	27.44
236.38	30.67
236.76	22.60
237.13	-0.32
237.50	-3.23
237.87	-19.69
238.25	-12.59
238.62	-8.07
238.99	-2.91
239.36	-1.94
239.74	8.72
240.11	7.75
240.48	17.76
240.85	9.04
241.23	14.85
241.60	7.43
241.97	-8.72
242.34	-24.21
242.72	-36.16
243.09	-28.73
243.46	-39.06
243.83	-45.52
244.20	-41.00
244.58	-36.16
244.95	-29.38
245.32	-20.02
245.69	-29.05
246.07	-26.15
246.44	-27.44
246.81	-36.80
247.18	-44.87
247.55	-43.58
247.92	-36.80
248.30	-23.24
248.67	-14.85
249.04	-9.68
249.41	-2.91
249.78	8.72
250.16	36.80
250.53	38.09
250.90	34.54
251.27	33.90
251.64	31.64
252.01	29.38
252.39	23.57
252.76	0.32
253.13	-19.37
253.50	-45.84
253.87	-43.58
254.24	-40.35
254.61	-42.61
254.98	-49.39
255.36	-45.84
255.73	-13.24
256.10	8.39
256.47	13.56
256.84	21.63
257.21	25.18
257.58	25.50
257.95	12.59
258.33	7.10
258.70	8.72
259.07	-9.68
259.44	-22.28
259.81	-22.60
260.18	-19.05
260.55	0.32
260.92	-22.60
261.29	-20.34
261.66	-12.59
262.03	-8.07
262.40	-33.90
262.77	-22.92
263.15	-30.02
263.52	-18.40
263.89	-25.18
264.26	-32.28
264.63	-32.28
265.00	-22.60
265.37	-13.88
265.74	-13.24
266.11	-22.92
266.48	1.94
266.85	12.27
267.22	13.56
267.59	19.37
267.96	3.23
268.33	-3.55
268.70	2.91
269.07	-11.62
269.44	-11.94
269.81	-2.91
270.18	5.49
270.55	-10.65
270.92	-7.10
271.29	1.29
271.66	5.49
272.03	8.39
272.40	-11.62
272.77	-23.89
273.14	-1.94
273.51	1.94
273.88	-16.79
274.25	-32.93
274.62	-33.25
274.99	-31.31
275.36	-13.56
275.73	-23.24
276.10	-17.11
276.47	-6.13
276.84	16.46
277.21	15.82
277.58	25.83
277.94	29.38
278.31	38.74
278.68	41.65
279.05	26.15
279.42	31.64
279.79	25.50
280.16	29.38
280.53	7.10
280.90	-10.98
281.27	-22.92
281.64	6.78
282.01	-9.68
282.37	-11.30
282.74	-12.59
283.11	3.23
283.48	11.94
283.85	3.55
284.22	-12.59
284.59	-17.43
284.96	-22.28
285.33	-10.98
285.69	1.61
286.06	7.43
286.43	30.67
286.80	35.19
287.17	53.59
287.54	65.21
287.91	51.65
288.27	40.35
288.64	27.44
289.01	35.83
289.38	40.35
289.75	31.31
290.12	44.23
290.48	38.42
290.85	31.64
291.22	26.47
291.59	-6.46
291.96	-21.63
292.33	-39.06
292.69	-53.59
293.06	-43.26
293.43	-38.74
293.80	-24.21
294.17	-10.65
294.53	-2.91
294.90	3.23
295.27	12.91
295.64	26.80
296.01	35.83
296.37	43.26
296.74	30.67
297.11	36.16
297.48	45.52
297.84	31.31
298.21	27.12
298.58	8.39
298.95	2.58
299.31	3.23
299.68	4.52
300.05	-0.65
300.42	-3.55
300.78	-32.93
301.15	-20.66
301.52	-12.91
301.89	16.46
302.25	13.56
302.62	16.14
302.99	24.21
303.35	22.60
303.72	21.95
304.09	11.30
304.46	-1.94
304.82	-10.65
305.19	-6.78
305.56	-6.46
305.92	5.17
306.29	18.40
306.66	28.09
307.02	6.78
307.39	2.91
307.76	12.59
308.12	20.34
308.49	10.65
308.86	-15.50
309.23	-20.34
309.59	-16.79
309.96	-10.33
310.32	-14.85
310.69	-18.40
311.06	-1.29
311.42	9.36
311.79	11.94
312.16	8.39
312.52	15.50
312.89	13.56
313.26	3.23
313.62	4.52
313.99	8.39
314.35	-6.13
314.72	0.65
315.09	-8.39
315.45	-7.43
315.82	0.97
316.19	-3.87
316.55	-10.01
316.92	-9.68
317.28	1.94
317.65	5.81
318.02	0.97
318.38	-13.24
318.75	-16.14
319.11	-17.76
319.48	-9.68
319.84	-6.46
320.21	-10.65
320.58	0.97
320.94	34.22
321.31	38.09
321.67	46.81
322.04	48.75
322.40	45.52
322.77	44.87
323.13	31.31
323.50	7.43
323.86	-7.43
324.23	-7.75
324.60	-7.75
324.96	-2.58
325.33	-7.10
325.69	-9.36
326.06	-24.21
326.42	-16.14
326.79	-27.44
327.15	-36.16
327.52	-37.77
327.88	-12.91
328.25	1.29
328.61	4.84
328.98	3.87
329.34	5.17
329.71	9.36
330.07	5.81
330.44	-19.37
330.80	-28.09
331.16	-25.18
331.53	-8.72
331.89	16.14
332.26	22.92
332.62	27.12
332.99	39.39
333.35	40.68
333.72	53.59
334.08	42.29
334.45	12.91
334.81	22.60
335.17	12.91
335.54	9.68
335.90	11.94
336.27	-2.91
336.63	-2.58
337.00	18.08
337.36	19.37
337.72	18.08
338.09	11.94
338.45	8.39
338.82	20.34
339.18	16.79
339.54	11.94
339.91	2.58
340.27	9.04
340.63	11.94
341.00	15.82
341.36	27.76
341.73	21.63
342.09	14.53
342.45	20.34
342.82	16.79
343.18	38.42
343.54	51.01
343.91	34.54
344.27	47.13
344.63	53.59
345.00	45.84
345.36	50.36
345.72	30.99
346.09	-2.91
346.45	14.53
346.81	12.91
347.18	11.94
347.54	14.85
347.90	9.68
348.27	12.27
348.63	10.65
348.99	-8.72
349.36	-17.43
349.72	-22.28
350.08	-27.76
350.45	-29.70
350.81	-29.70
351.17	-19.05
351.53	-18.08
351.90	-8.72
352.26	3.55
352.62	-6.46
352.98	-21.95
353.35	-24.54
353.71	-25.50
354.07	-29.05
354.44	-43.26
354.80	-44.87
355.16	-32.61
355.52	-17.11
355.88	-22.28
356.25	-29.05
356.61	-29.70
356.97	-31.96
357.33	-51.98
357.70	-38.09
358.06	-44.23
358.42	-45.20
358.78	-59.08
359.15	-55.20
359.51	-43.58
359.87	-40.68
360.23	-45.20
360.59	-41.32
360.95	-33.90
361.32	-6.13
361.68	1.61
362.04	1.94
362.40	10.98
362.76	-0.97
363.13	-8.72
363.49	-19.05
363.85	-10.98
364.21	-24.21
364.57	-17.76
364.93	-27.44
365.30	-22.28
365.66	-12.59
366.02	7.75
366.38	2.58
366.74	25.83
367.10	27.44
367.46	29.38
367.83	28.73
368.19	44.23
368.55	36.16
368.91	30.67
369.27	14.20
369.63	0.00
369.99	-1.61
370.35	-7.10
370.71	-25.18
371.08	-22.60
371.44	-27.76
371.80	-19.69
372.16	-4.52
372.52	2.91
372.88	23.57
373.24	34.22
373.60	37.77
373.96	48.42
374.32	50.36
374.68	47.78
375.04	43.91
375.40	34.87
375.76	40.68
376.13	43.58
376.49	41.00
376.85	24.54
377.21	35.83
377.57	30.02
377.93	16.79
378.29	6.13
378.65	16.79
379.01	20.98
379.37	18.72
379.73	4.52
380.09	30.02
380.45	36.16
380.81	27.44
381.17	9.04
381.53	5.49
381.89	-13.24
382.25	-23.57
382.61	-39.06
382.97	-49.07
383.33	-48.42
383.69	-43.26
384.05	-48.42
384.41	-2.91
384.77	-0.32
385.13	0.00
385.49	-9.68
385.85	-3.55
386.20	-5.17
386.56	-28.41
386.92	-58.76
387.28	-66.83
387.64	-73.61
388.00	-72.64
388.36	-67.79
388.72	-51.98
389.08	-36.80
389.44	-31.64
389.80	-11.30
390.16	3.87
390.52	15.17
390.88	4.20
391.23	-13.56
391.59	9.36
391.95	18.40
392.31	3.23
392.67	-21.31
393.03	-8.72
393.39	-2.26
393.75	-3.55
394.11	-7.10
394.46	-0.65
394.82	16.46
395.18	26.80
395.54	27.76
395.90	20.34
396.26	14.20
396.62	3.55
396.97	-2.58
397.33	-9.36
397.69	-14.53
398.05	-24.21
398.41	-11.94
398.77	-12.27
399.12	4.84
399.48	4.20
399.84	7.43
400.20	17.76
400.56	19.05
400.91	4.20
401.27	-0.97
401.63	-4.84
401.99	-1.29
402.35	0.32
402.70	-18.72
403.06	-17.43
403.42	-9.36
403.78	6.13
404.14	7.10
404.49	-3.55
404.85	-9.04
405.21	10.65
405.57	12.59
405.92	21.63
406.28	8.72
406.64	-1.94
407.00	8.07
407.35	15.50
407.71	9.04
408.07	3.87
408.43	-4.20
408.78	-2.26
409.14	4.52
409.50	20.34
409.85	14.53
410.21	14.53
410.57	6.46
410.93	2.58
411.28	9.36
411.64	8.07
412.00	-2.91
412.35	-3.87
412.71	4.84
413.07	11.30
413.42	4.20
413.78	1.61
414.14	-12.27
414.49	-25.18
414.85	-16.79
415.21	-13.24
415.56	-11.62
415.92	23.89
416.28	30.67
416.63	32.93
416.99	36.16
417.35	26.47
417.70	12.91
418.06	22.28
418.42	14.53
418.77	17.76
419.13	31.96
419.48	38.74
419.84	23.89
420.20	34.87
420.55	2.26
420.91	-7.75
421.27	-1.29
421.62	2.91
421.98	-7.10
422.33	8.72
422.69	12.59
423.05	30.67
423.40	16.79
423.76	9.04
424.11	-0.97
424.47	2.26
424.82	19.37
425.18	0.32
425.54	9.68
425.89	12.27
426.25	10.65
426.60	0.97
426.96	-7.10
427.31	-25.18
427.67	-25.18
428.02	-17.11
428.38	-12.59
428.73	-14.85
429.09	-9.36
429.44	3.23
429.80	12.27
430.15	29.38
430.51	23.89
430.86	29.70
431.22	11.62
431.57	0.65
431.93	-3.55
432.28	-4.20
432.64	-13.24
432.99	-12.27
433.35	-2.26
433.70	-5.81
434.06	16.14
434.41	11.30
434.77	9.04
435.12	23.57
435.48	11.30
435.83	12.59
436.19	34.22
436.54	20.02
436.89	23.89
437.25	19.69
437.60	2.58
437.96	7.75
438.31	9.36
438.67	-0.00
439.02	2.58
439.37	11.62
439.73	7.43
440.08	15.50
440.44	24.54
440.79	12.59
441.15	18.40
441.50	30.02
441.85	31.31
442.21	47.13
442.56	50.68
442.91	39.39
443.27	37.13
443.62	38.09
443.98	24.54
444.33	18.08
444.68	6.13
445.04	-10.65
445.39	-2.91
445.74	-8.07
446.10	-11.30
446.45	-24.54
446.80	0.00
447.16	1.94
447.51	9.36
447.86	8.39
448.22	19.37
448.57	8.39
448.92	18.40
449.28	-11.30
449.63	-20.34
449.98	-20.98
450.34	-10.98
450.69	-17.76
451.04	-12.27
451.40	-13.88
451.75	-5.17
452.10	10.33
452.45	21.95
452.81	16.79
453.16	20.02
453.51	25.18
453.86	30.02
454.22	18.40
454.57	11.30
454.92	5.81
455.27	-12.91
455.63	-17.76
455.98	-14.85
456.33	-30.02
456.68	-35.51
457.04	-36.16
457.39	-42.94
457.74	-26.47
458.09	-32.93
458.45	-29.38
458.80	-22.92
459.15	-3.23
459.50	-8.72
459.85	-19.69
460.21	-22.92
460.56	-14.85
460.91	-12.27
461.26	-1.94
461.61	-18.08
461.97	-4.52
462.32	0.65
462.67	-4.84
463.02	18.72
463.37	8.39
463.72	10.98
464.08	19.05
464.43	6.13
464.78	31.96
465.13	45.20
465.48	24.21
465.83	28.09
466.18	19.69
466.54	22.28
466.89	18.72
467.24	10.33
467.59	4.20
467.94	-0.32
468.29	1.29
468.64	8.39
468.99	7.10
469.34	-0.32
469.70	-9.04
470.05	-15.17
470.40	-19.37
470.75	-27.12
471.10	-29.70
471.45	-40.68
471.80	-30.02
472.15	-32.28
472.50	-22.60
472.85	-17.11
473.20	-16.79
473.55	-11.62
473.90	-11.62
474.25	-6.13
474.61	-5.49
474.96	-13.24
475.31	-12.27
475.66	-0.32
476.01	0.00
476.36	10.65
476.71	23.89
477.06	35.51
477.41	44.87
477.76	45.84
478.11	51.01
478.46	58.76
478.81	74.90
479.16	61.02
479.51	40.35
479.86	41.97
480.21	33.90
480.56	20.66
480.91	3.23
481.26	-5.81
481.61	5.17
481.96	23.89
482.31	16.46
482.66	18.72
483.00	24.54
483.35	31.96
483.70	14.53
484.05	5.49
484.40	5.49
484.75	-5.17
485.10	-1.61
485.45	1.29
485.80	1.29
486.15	14.53
486.50	6.78
486.85	-8.39
487.20	0.00
487.55	4.20
487.89	-13.56
488.24	-18.40
488.59	-9.68
488.94	-2.58
489.29	9.68
489.64	3.87
489.99	-1.29
490.34	10.01
490.68	11.62
491.03	5.81
491.38	12.27
491.73	0.65
492.08	10.65
492.43	30.99
492.78	26.80
493.12	33.90
493.47	20.34
493.82	6.46
494.17	16.46
494.52	19.37
494.87	-4.84
495.21	-15.17
495.56	-18.40
495.91	-2.58
496.26	6.46
496.61	13.24
496.95	6.78
497.30	17.43
497.65	32.28
498.00	32.61
498.35	32.28
498.69	22.92
499.04	9.36
499.39	5.49
499.74	-0.97
500.08	-4.20
500.43	-8.72
500.78	-22.60
501.13	-25.83
501.48	-32.61
501.82	-24.21
502.17	-30.99
502.52	-25.50
502.86	-35.83
503.21	-36.80
503.56	-23.24
503.91	-16.14
504.25	-23.89
504.60	-16.46
504.95	-23.24
505.30	-10.65
505.64	0.32
505.99	-0.32
506.34	7.75
506.68	13.56
507.03	9.68
507.38	24.21
507.72	27.44
508.07	15.82
508.42	19.69
508.76	-0.97
509.11	6.78
509.46	17.43
509.80	-4.52
510.15	-16.79
510.50	-10.98
510.84	1.29
511.19	24.21
511.54	16.79
511.88	26.47
512.23	47.13
512.57	66.50
512.92	71.35
513.27	45.52
513.61	51.98
513.96	45.52
514.31	30.35
514.65	10.98
515.00	-12.91
515.34	-11.94
515.69	-7.43
516.03	-17.11
516.38	-11.94
516.73	-25.83
517.07	-32.93
517.42	-18.40
517.76	-17.43
518.11	-20.66
518.45	-24.86
518.80	-25.50
519.15	-0.65
519.49	21.31
519.84	25.18
520.18	13.56
520.53	7.75
520.87	-12.27
521.22	-10.98
521.56	-23.24
521.91	-29.70
522.25	-39.39
522.60	-25.18
522.94	-2.58
523.29	11.30
523.63	12.59
523.98	5.17
524.32	10.98
524.67	4.84
525.01	-16.46
525.36	-25.50
525.70	-13.88
526.05	-8.39
526.39	0.65
526.74	2.58
527.08	13.56
527.43	12.59
527.77	12.59
528.12	8.39
528.46	-4.20
528.80	-10.65
529.15	-28.09
529.49	-31.96
529.84	-20.66
530.18	-29.38
530.53	-44.87
530.87	-31.31
531.21	-28.41
531.56	-17.76
531.90	-21.63
532.25	-5.49
532.59	11.94
532.93	24.54
533.28	5.81
533.62	10.65
533.97	8.39
534.31	21.63
534.65	4.20
535.00	12.59
535.34	12.27
535.68	28.41
536.03	5.81
536.37	6.13
536.71	-2.26
537.06	7.75
537.40	-17.43
537.74	-19.05
538.09	-28.09
538.43	-10.98
538.77	-7.75
539.12	-1.61
539.46	0.97
539.80	1.29
540.15	8.07
540.49	15.82
540.83	21.95
541.18	33.25
541.52	32.61
541.86	39.71
542.20	43.58
542.55	39.71
542.89	39.39
543.23	30.99
543.58	16.14
543.92	8.72
544.26	0.00
544.60	2.26
544.95	8.72
545.29	-5.49
545.63	-15.17
545.97	-15.50
546.32	-10.33
546.66	-16.79
547.00	-1.29
547.34	-10.01
547.68	6.13
548.03	14.85
548.37	7.43
548.71	11.94
549.05	-4.20
549.39	-13.88
549.74	-22.92
550.08	-33.90
550.42	-35.51
550.76	-25.83
551.10	-46.17
551.45	-25.18
551.79	-14.85
552.13	-11.94
552.47	-13.24
552.81	-7.75
553.15	-7.75
553.50	7.10
553.84	5.49
554.18	1.94
554.52	18.08
554.86	36.80
555.20	41.00
555.54	43.91
555.88	43.26
556.23	23.24
556.57	12.59
556.91	-4.20
557.25	-4.84
557.59	-4.20
557.93	-9.04
558.27	1.29
558.61	20.66
558.95	27.76
559.29	32.93
559.64	18.72
559.98	-15.17
560.32	-18.72
560.66	-21.95
561.00	-27.12
561.34	-56.82
561.68	-52.62
562.02	-45.20
562.36	-11.62
562.70	-6.78
563.04	-22.60
563.38	-27.12
563.72	-6.13
564.06	1.94
564.40	3.23
564.74	0.65
565.08	-10.01
565.42	-9.68
565.76	-5.17
566.10	1.29
566.44	-4.52
566.78	-17.43
567.12	-16.79
567.46	-9.68
567.80	10.01
568.14	-0.65
568.48	-2.26
568.82	-2.26
569.16	-15.50
569.50	-12.91
569.84	-7.75
570.18	-19.37
570.52	-4.84
570.86	-13.24
571.20	-18.72
571.54	-13.88
571.88	-13.24
572.22	-7.75
572.55	-11.62
572.89	-10.01
573.23	5.49
573.57	-3.55
573.91	14.85
574.25	4.20
574.59	-20.34
574.93	-18.40
575.27	-20.34
575.61	-30.99
575.94	-22.28
576.28	-20.02
576.62	-10.01
576.96	17.43
577.30	26.47
577.64	37.45
577.98	41.32
578.32	57.14
578.65	54.24
578.99	61.34
579.33	60.69
579.67	65.21
580.01	65.21
580.35	62.95
580.68	47.46
581.02	45.52
581.36	40.35
581.70	22.60
582.04	19.69
582.37	15.50
582.71	13.56
583.05	10.33
583.39	-1.61
583.73	-14.85
584.06	-0.32
584.40	-3.87
584.74	-5.17
585.08	-9.36
585.41	4.52
585.75	13.56
586.09	27.76
586.43	12.91
586.76	9.68
587.10	6.46
587.44	8.07
587.78	-1.94
588.11	-12.27
588.45	-29.70
588.79	-37.13
589.13	-32.61
589.46	-24.86
589.80	-16.14
590.14	-9.36
590.47	-9.68
590.81	6.46
591.15	29.70
591.48	25.50
591.82	15.17
592.16	3.23
592.50	-1.61
592.83	-5.49
593.17	-3.87
593.51	-22.92
593.84	-31.31
594.18	-42.29
594.51	-27.76
594.85	-3.55
595.19	9.68
595.52	11.30
595.86	14.20
596.20	32.93
596.53	61.98
596.87	58.43
597.21	26.47
597.54	31.64
597.88	27.12
598.21	41.65
598.55	30.99
598.89	20.02
599.22	10.01
599.56	12.91
599.89	7.43
600.23	6.78
600.57	3.55
600.90	-2.91
601.24	-3.23
601.57	-7.75
601.91	-4.20
602.24	6.46
602.58	11.30
602.91	3.55
603.25	-1.94
603.58	-18.40
603.92	-17.43
604.26	-10.33
604.59	-28.41
604.93	-41.97
605.26	-30.99
605.60	-3.87
605.93	17.11
606.27	11.30
606.60	-0.32
606.94	7.75
607.27	15.17
607.61	25.50
607.94	15.82
608.28	13.88
608.61	27.12
608.95	32.28
609.28	43.91
609.61	45.20
609.95	51.33
610.28	62.63
610.62	56.17
610.95	63.92
611.29	66.83
611.62	48.75
611.96	43.58
612.29	39.71
612.62	19.37
612.96	10.01
613.29	4.52
613.63	6.46
613.96	13.24
614.29	16.14
614.63	-0.97
614.96	0.32
615.30	9.36
615.63	10.65
615.96	11.94
616.30	1.61
616.63	3.55
616.97	12.27
617.30	18.40
617.63	18.08
617.97	20.02
618.30	0.00
618.63	0.97
618.97	-10.65
619.30	-8.39
619.63	-11.30
619.97	-14.20
620.30	-19.37
620.63	5.49
620.97	5.81
621.30	16.79
621.63	-1.94
621.97	3.23
622.30	12.59
622.63	15.82
622.96	12.27
623.30	8.07
623.63	9.04
623.96	21.63
624.30	30.67
624.63	32.61
624.96	15.50
625.29	-7.75
625.63	-9.36
625.96	9.68
626.29	2.91
626.62	-11.30
626.96	-18.72
627.29	-13.56
627.62	6.46
627.95	14.53
628.28	-9.04
628.62	-5.81
628.95	-26.47
629.28	-38.74
629.61	-20.02
629.95	-17.11
630.28	-6.78
630.61	7.10
630.94	4.84
631.27	14.85
631.60	30.99
631.94	32.61
632.27	30.99
632.60	35.83
632.93	19.69
633.26	9.04
633.59	21.63
633.93	6.46
634.26	-9.04
634.59	-20.98
634.92	-36.16
635.25	-41.00
635.58	-36.80
635.91	-40.68
636.24	-38.09
636.58	-21.95
636.91	-18.40
637.24	-14.20
637.57	-13.88
637.90	-17.11
638.23	-16.79
638.56	-16.14
638.89	-25.50
639.22	-19.05
639.55	-19.37
639.88	-5.81
640.22	13.24
640.55	13.56
640.88	23.57
641.21	9.36
641.54	8.39
641.87	15.50
642.20	6.78
642.53	-1.94
642.86	-1.94
643.19	-0.65
643.52	11.30
643.85	-1.29
644.18	-1.29
644.51	-1.61
644.84	-3.23
645.17	-11.94
645.50	-34.22
645.83	-39.06
646.16	-21.31
646.49	-41.65
646.82	-26.80
647.15	-23.24
647.48	-16.14
647.81	-7.10
648.14	-11.94
648.47	-17.76
648.80	1.61
649.13	-1.61
649.46	-11.94
649.79	-3.23
650.11	10.01
650.44	15.50
650.77	-0.65
651.10	-10.33
651.43	-15.50
651.76	-26.80
652.09	-42.29
652.42	-43.91
652.75	-40.03
653.08	-18.08
653.41	-3.23
653.73	-0.65
654.06	16.46
654.39	23.57
654.72	23.24
655.05	22.60
655.38	18.72
655.71	13.24
656.04	13.24
656.36	34.54
656.69	34.87
657.02	30.35
657.35	16.14
657.68	17.11
658.01	18.40
658.33	38.09
658.66	22.28
658.99	18.72
659.32	1.29
659.65	22.60
659.97	19.37
660.30	11.30
660.63	-17.11
660.96	-13.88
661.29	-7.43
661.61	-2.91
661.94	-20.66
662.27	-16.14
662.60	-10.33
662.92	-15.50
663.25	-31.96
663.58	-46.17
663.91	-45.20
664.23	-32.93
664.56	-21.31
664.89	-17.43
665.22	-12.27
665.54	-0.32
665.87	7.10
666.20	15.82
666.53	-1.29
666.85	-27.12
667.18	-30.99
667.51	-36.16
667.83	-52.30
668.16	-55.85
668.49	-50.04
668.81	-33.90
669.14	-11.30
669.47	2.91
669.79	22.92
670.12	38.09
670.45	40.35
670.77	43.91
671.10	35.19
671.43	34.22
671.75	21.95
672.08	5.49
672.41	-9.68
672.73	-5.81
673.06	-11.94
673.39	-3.23
673.71	-14.85
674.04	-23.89
674.36	-10.01
674.69	5.17
675.02	17.43
675.34	28.09
675.67	16.79
675.99	20.02
676.32	25.83
676.64	23.24
676.97	20.98
677.30	6.78
677.62	-14.85
677.95	4.84
678.27	-9.36
678.60	-12.59
678.92	-18.40
679.25	-15.82
679.57	-21.95
679.90	-16.14
680.22	-21.95
680.55	-10.98
680.88	-20.02
681.20	-31.31
681.53	-41.97
681.85	-28.41
682.18	-18.08
682.50	-16.79
682.83	-16.46
683.15	1.94
683.47	14.20
683.80	12.91
684.12	0.97
684.45	-2.58
684.77	-3.87
685.10	-7.43
685.42	-13.24
685.75	-19.05
686.07	-16.14
686.40	-12.27
686.72	-18.08
687.04	-27.12
687.37	-20.02
687.69	3.23
688.02	6.78
688.34	8.72
688.67	2.26
688.99	-10.65
689.31	0.32
689.64	-3.55
689.96	-18.40
690.28	-5.81
690.61	6.13
690.93	30.35
691.26	51.01
691.58	41.65
691.90	41.65
692.23	19.69
692.55	9.36
692.87	5.81
693.20	-8.39
693.52	-3.87
693.84	-14.85
694.17	-16.79
694.49	4.20
694.81	3.23
695.14	-0.97
695.46	-3.55
695.78	-7.43
696.11	-1.61
696.43	10.33
696.75	-6.13
697.08	-4.52
697.40	-6.13
697.72	-4.20
698.04	-6.13
698.37	20.02
698.69	9.04
699.01	21.95
699.33	33.25
699.66	28.41
699.98	22.28
700.30	38.74
700.62	15.82
700.95	18.08
701.27	19.69
701.59	7.43
701.91	3.87
702.24	13.56
702.56	0.65
702.88	9.04
703.20	17.76
703.52	18.40
703.85	8.07
704.17	33.57
704.49	34.22
704.81	20.02
705.13	19.69
705.45	19.05
705.78	5.81
706.10	5.81
706.42	-22.28
706.74	-20.66
707.06	-9.36
707.38	0.65
707.71	-9.68
708.03	-8.72
708.35	-3.87
708.67	11.94
708.99	-2.58
709.31	-4.84
709.63	-20.02
709.95	-23.89
710.27	-17.76
710.60	-14.53
710.92	-34.54
711.24	-23.57
711.56	-27.44
711.88	-21.63
712.20	-26.47
712.52	-32.93
712.84	-30.02
713.16	-18.08
713.48	-16.14
713.80	-12.91
714.12	-19.69
714.44	-5.17
714.76	8.39
715.08	10.33
715.40	29.05
715.72	20.02
716.04	7.10
716.36	-0.32
716.68	-7.75
717.00	-17.76
717.32	-23.89
717.64	-36.16
717.96	-27.44
718.28	-8.39
718.60	9.36
718.92	23.57
719.24	22.92
719.56	29.05
719.88	23.89
720.20	16.79
720.52	4.52
720.84	-18.40
721.16	-24.86
721.48	-5.81
721.80	-3.87
722.12	-5.49
722.44	-3.87
722.76	7.10
723.08	25.50
723.40	17.43
723.72	-4.52
724.03	1.94
724.35	11.30
724.67	24.86
724.99	27.44
725.31	18.72
725.63	34.22
725.95	21.95
726.27	-7.43
726.58	-11.62
726.90	-14.85
727.22	-9.36
727.54	-14.20
727.86	-28.09
728.18	-2.91
728.50	7.43
728.81	15.17
729.13	12.91
729.45	-0.65
729.77	11.30
730.09	24.86
730.40	-0.65
730.72	12.59
731.04	2.58
731.36	4.20
731.68	12.91
731.99	11.30
732.31	-5.81
732.63	3.23
732.95	-3.55
733.27	-1.94
733.58	1.29
733.90	-0.65
734.22	-5.17
734.54	6.13
734.85	5.81
735.17	6.78
735.49	3.55
735.80	-1.29
736.12	-17.43
736.44	-25.83
736.76	-40.68
737.07	-25.50
737.39	-31.31
737.71	-23.57
738.02	-29.70
738.34	-11.30
738.66	-4.52
738.97	-1.94
739.29	-13.56
739.61	-1.61
739.93	-10.33
740.24	-13.88
740.56	-40.03
740.87	-30.02
741.19	-22.28
741.51	-13.88
741.82	-12.27
742.14	7.75
742.46	7.43
742.77	10.01
743.09	25.83
743.41	12.59
743.72	6.46
744.04	-1.94
744.35	-12.59
744.67	-10.65
744.99	-0.32
745.30	-42.94
745.62	-20.66
745.93	-7.75
746.25	-24.86
746.56	-22.92
746.88	-24.86
747.20	-3.23
747.51	14.20
747.83	4.52
748.14	-9.04
748.46	0.65
748.77	-7.75
749.09	3.87
749.40	-4.52
749.72	8.72
750.03	6.13
750.35	5.81
750.66	16.46
750.98	30.99
751.29	27.76
751.61	21.63
751.92	17.43
752.24	21.31
752.55	16.79
752.87	11.94
753.18	0.32
753.50	-4.52
753.81	-1.61
754.13	-9.68
754.44	-2.91
754.76	5.17
755.07	14.53
755.38	9.68
755.70	-2.91
756.01	-24.86
756.33	-28.09
756.64	-37.45
756.95	-41.32
757.27	-54.88
757.58	-53.27
757.90	-39.06
758.21	-27.12
758.52	-10.33
758.84	-19.37
759.15	-14.85
759.47	14.85
759.78	19.69
760.09	31.31
760.41	39.71
760.72	46.49
761.03	59.08
761.35	41.97
761.66	7.10
761.97	5.49
762.29	-1.29
762.60	-7.10
762.91	-18.40
763.23	-21.31
763.54	4.52
763.85	41.00
764.17	30.35
764.48	27.12
764.79	10.33
765.10	8.39
765.42	15.50
765.73	6.78
766.04	-8.07
766.36	2.91
766.67	-15.50
766.98	6.78
767.29	-10.65
767.61	-8.39
767.92	5.81
768.23	-9.04
768.54	-9.68
768.86	2.91
769.17	0.65
769.48	18.40
769.79	10.33
770.10	-10.33
770.42	-6.13
770.73	2.26
771.04	4.84
771.35	8.72
771.66	-0.32
771.98	4.20
772.29	14.53
772.60	-0.97
772.91	-11.62
773.22	0.00
773.53	-5.49
773.85	4.52
774.16	-2.91
774.47	-3.23
774.78	6.46
775.09	8.07
775.40	-7.10
775.71	-4.20
776.02	-10.65
776.34	-0.97
776.65	10.01
776.96	33.57
777.27	41.65
777.58	57.79
777.89	65.53
778.20	67.47
778.51	71.35
778.82	48.10
779.13	31.31
779.44	32.61
779.75	30.02
780.06	16.79
780.38	12.91
780.69	6.13
781.00	18.08
781.31	17.76
781.62	8.72
781.93	-4.20
782.24	4.52
782.55	1.29
782.86	2.26
783.17	-6.78
783.48	-15.82
783.79	-16.14
784.10	-16.14
784.41	-26.47
784.72	-23.24
785.03	-34.87
785.34	-32.61
785.65	-21.63
785.96	-10.65
786.27	-16.14
786.57	-19.37
786.88	-16.14
787.19	-9.68
787.50	-13.24
787.81	-5.49
788.12	-14.85
788.43	17.76
788.74	17.76
789.05	27.44
789.36	28.73
789.67	34.87
789.98	41.65
790.29	43.58
790.59	14.20
790.90	23.57
791.21	12.59
791.52	7.10
791.83	8.72
792.14	-0.97
792.45	-5.49
792.75	5.49
793.06	7.10
793.37	18.40
793.68	8.39
793.99	5.49
794.30	2.91
794.60	18.40
794.91	19.37
795.22	25.18
795.53	16.14
795.84	32.61
796.15	31.64
796.45	19.69
796.76	21.95
797.07	15.50
797.38	7.10
797.68	-1.61
797.99	-9.36
798.30	8.72
798.61	-2.26
798.91	-16.14
799.22	-7.43
799.53	-0.32
799.84	13.56
800.14	26.15
800.45	16.14
800.76	51.33
801.07	56.17
801.37	44.87
801.68	31.31
801.99	32.93
802.29	39.39
802.60	34.54
802.91	31.64
803.22	13.24
803.52	27.44
803.83	24.54
804.14	20.34
804.44	6.13
804.75	10.65
805.06	-0.00
805.36	17.76
805.67	12.59
805.97	26.80
806.28	23.89
806.59	33.90
806.89	24.54
807.20	11.62
807.51	8.07
807.81	16.14
808.12	6.13
808.42	-2.91
808.73	-22.92
809.04	-24.86
809.34	-7.43
809.65	0.65
809.95	-8.07
810.26	0.65
810.56	-0.32
810.87	3.55
811.18	24.21
811.48	16.46
811.79	2.26
812.09	1.61
812.40	5.81
812.70	-0.32
813.01	1.29
813.31	-25.83
813.62	-18.08
813.92	-13.88
814.23	-21.95
814.53	-32.28
814.84	-0.32
815.14	-16.46
815.45	-13.88
815.75	-23.24
816.06	-8.72
816.36	-7.43
816.67	-12.27
816.97	-36.80
817.28	-10.33
817.58	5.17
817.89	9.36
818.19	-11.94
818.49	-3.55
818.80	11.62
819.10	9.36
819.41	11.94
819.71	7.10
820.01	5.17
820.32	22.92
820.62	9.36
820.93	0.65
821.23	13.24
821.53	2.58
821.84	5.17
822.14	5.49
822.45	-20.98
822.75	-14.85
823.05	-16.46
823.36	-9.68
823.66	-9.36
823.96	-4.20
824.27	-11.62
824.57	17.11
824.87	14.53
825.18	22.28
825.48	25.50
825.78	39.06
826.09	21.95
826.39	38.74
826.69	17.11
827.00	25.83
827.30	48.75
827.60	34.54
827.90	32.93
828.21	58.76
828.51	56.50
828.81	57.46
829.11	58.11
829.42	16.79
829.72	28.41
830.02	18.40
830.32	16.46
830.63	8.72
830.93	16.14
831.23	-1.61
831.53	8.72
831.84	-1.29
832.14	5.17
832.44	0.32
832.74	-9.04
833.04	-17.76
833.35	-11.30
833.65	2.91
833.95	4.20
834.25	-10.98
834.55	-10.98
834.85	4.84
835.16	17.11
835.46	16.14
835.76	10.98
836.06	4.84
836.36	22.92
836.66	16.14
836.96	12.27
837.26	1.61
837.57	12.27
837.87	-11.62
838.17	-5.49
838.47	-15.50
838.77	-22.60
839.07	-30.67
839.37	-21.31
839.67	-25.50
839.97	-13.24
840.27	-21.95
840.57	-20.66
840.88	-14.20
841.18	-0.65
841.48	1.94
841.78	4.84
842.08	13.88
842.38	10.33
842.68	23.24
842.98	20.98
843.28	16.46
843.58	11.94
843.88	-5.17
844.18	-7.43
844.48	10.98
844.78	-6.13
845.08	3.87
845.38	6.13
845.68	-7.10
845.98	15.17
846.28	6.78
846.58	-4.84
846.88	-4.52
847.18	-14.85
847.48	-29.70
847.78	-14.20
848.07	-15.17
848.37	-21.31
848.67	-22.60
848.97	-24.86
849.27	-14.20
849.57	-7.75
849.87	-15.82
850.17	-26.47
850.47	-25.18
850.77	-27.44
851.07	-38.74
851.36	-50.36
851.66	-62.63
851.96	-63.60
852.26	-66.18
852.56	-48.42
852.86	-35.19
853.16	-19.69
853.45	-17.76
853.75	4.84
854.05	9.68
854.35	7.43
854.65	5.17
854.95	-3.55
855.24	-9.04
855.54	15.17
855.84	11.30
856.14	7.75
856.44	36.80
856.73	34.22
857.03	49.39
857.33	71.99
857.63	54.24
857.93	55.20
858.22	68.44
858.52	51.01
858.82	54.24
859.12	50.04
859.41	37.45
859.71	31.64
860.01	23.57
860.30	27.44
860.60	30.02
860.90	24.54
861.20	16.14
861.49	8.72
861.79	5.81
862.09	16.46
862.38	-0.65
862.68	-12.91
862.98	3.87
863.27	-2.91
863.57	15.50
863.87	12.59
864.16	6.13
864.46	22.60
864.76	32.28
865.05	13.56
865.35	9.04
865.65	6.46
865.94	22.60
866.24	5.81
866.54	-8.39
866.83	-16.46
867.13	-11.30
867.42	10.65
867.72	-9.36
868.02	-24.86
868.31	-12.27
868.61	-11.94
868.90	-10.33
869.20	1.29
869.49	-0.32
869.79	20.34
870.08	24.54
870.38	30.99
870.68	25.83
870.97	28.09
871.27	10.33
871.56	-15.17
871.86	-26.47
872.15	-30.35
872.45	-27.44
872.74	-19.69
873.04	-16.14
873.33	1.94
873.63	17.76
873.92	14.85
874.22	12.59
874.51	24.21
874.81	33.90
875.10	35.51
875.40	19.69
875.69	20.02
875.98	28.73
876.28	38.42
876.57	18.72
876.87	1.94
877.16	3.55
877.46	9.04
877.75	14.85
878.04	8.39
878.34	8.39
878.63	14.85
878.93	18.08
879.22	11.30
879.51	-0.32
879.81	-0.65
880.10	3.23
880.40	-18.08
880.69	-24.21
880.98	-28.73
881.28	-27.12
881.57	-24.54
881.86	-22.60
882.16	-28.09
882.45	-1.94
882.74	-3.87
883.04	12.27
883.33	11.30
883.62	11.62
883.92	56.50
884.21	-11.30
884.50	-31.64
>>>>>End Processed Spectral Data<<<<<
