SpectraSuite Data File
++++++++++++++++++++++++++++++++++++
Date: Fri Feb 20 12:14:59 EST 2015
User: Administrator
Dark Spectrum Present: Yes
Reference Spectrum Present: No
Number of Sampled Component Spectra: 1
Spectrometers: SB2+H01071
Integration Time (usec): 5000000 (SB2+H01071)
Spectra Averaged: 1 (SB2+H01071)
Boxcar Smoothing: 3 (SB2+H01071)
Correct for Electrical Dark: No (SB2+H01071)
Strobe/Lamp Enabled: Yes (SB2+H01071)
Correct for Detector Non-linearity: No (SB2+H01071)
Correct for Stray Light: No (SB2+H01071)
Number of Pixels in Processed Spectrum: 2048
>>>>>Begin Processed Spectral Data<<<<<
191.06	38.42
191.43	38.42
191.81	38.42
192.19	14.20
192.56	2.58
192.94	-7.10
193.31	-21.95
193.69	-25.18
194.07	-34.22
194.44	-23.89
194.82	-20.02
195.19	-16.14
195.57	-13.88
195.95	-13.88
196.32	-16.79
196.70	-10.33
197.07	-31.96
197.45	-39.39
197.83	-27.76
198.20	-27.44
198.58	-31.31
198.95	-27.76
199.33	-14.85
199.70	-3.87
200.08	-4.84
200.46	-8.72
200.83	-5.17
201.21	13.88
201.58	20.02
201.96	12.27
202.33	23.24
202.71	30.99
203.09	11.62
203.46	-1.94
203.84	1.29
204.21	-6.78
204.59	-6.46
204.96	-18.08
205.34	-24.86
205.71	-5.17
206.09	14.20
206.46	18.40
206.84	20.02
207.21	23.89
207.59	31.64
207.96	34.54
208.34	27.76
208.71	21.63
209.09	-0.65
209.46	-14.53
209.84	-10.33
210.21	-19.69
210.59	-15.17
210.96	-11.94
211.34	-16.46
211.71	-14.53
212.09	20.98
212.46	22.92
212.84	24.86
213.21	15.50
213.59	20.98
213.96	19.05
214.34	21.63
214.71	-3.23
215.08	-8.72
215.46	-6.78
215.83	5.49
216.21	-2.58
216.58	-0.65
216.96	-0.97
217.33	1.61
217.70	-6.46
218.08	-11.94
218.45	-24.21
218.83	-26.80
219.20	-33.57
219.58	-28.09
219.95	-38.42
220.32	-24.86
220.70	-27.76
221.07	-31.64
221.45	-25.50
221.82	-22.60
222.19	-28.41
222.57	-30.02
222.94	-37.13
223.32	-40.03
223.69	-20.66
224.06	-25.50
224.44	-19.69
224.81	-14.20
225.18	-5.49
225.56	0.65
225.93	18.08
226.31	13.24
226.68	16.14
227.05	5.81
227.43	4.20
227.80	-1.61
228.17	-4.84
228.55	-11.94
228.92	-5.49
229.29	-7.10
229.67	-0.97
230.04	-6.46
230.41	8.72
230.79	4.84
231.16	8.39
231.53	-4.20
231.91	-11.62
232.28	1.61
232.65	0.97
233.03	6.78
233.40	26.47
233.77	12.27
234.15	23.24
234.52	38.74
234.89	45.52
235.26	53.91
235.64	38.74
236.01	6.78
236.38	27.76
236.76	27.76
237.13	1.29
237.50	-9.04
237.87	-23.57
238.25	-9.36
238.62	7.75
238.99	7.10
239.36	8.39
239.74	33.25
240.11	30.02
240.48	40.35
240.85	34.87
241.23	28.41
241.60	10.01
241.97	4.52
242.34	-5.81
242.72	-9.36
243.09	1.29
243.46	-5.17
243.83	-4.52
244.20	-2.91
244.58	-7.43
244.95	-4.52
245.32	-13.88
245.69	-46.49
246.07	-37.13
246.44	-43.91
246.81	-30.02
247.18	-35.19
247.55	-35.19
247.92	-19.37
248.30	10.33
248.67	6.13
249.04	13.56
249.41	20.98
249.78	16.14
250.16	33.90
250.53	19.69
250.90	19.05
251.27	28.09
251.64	15.82
252.01	8.07
252.39	23.89
252.76	18.08
253.13	26.80
253.50	17.76
253.87	2.91
254.24	0.97
254.61	-4.84
254.98	-21.95
255.36	-37.45
255.73	-30.35
256.10	-33.90
256.47	-33.90
256.84	-19.69
257.21	-10.33
257.58	-3.55
257.95	-6.78
258.33	-10.33
258.70	-6.13
259.07	-7.75
259.44	-17.43
259.81	-23.89
260.18	-14.53
260.55	-1.61
260.92	-15.17
261.29	2.91
261.66	2.91
262.03	10.33
262.40	0.97
262.77	-6.46
263.15	-26.15
263.52	-18.08
263.89	-43.91
264.26	-50.04
264.63	-57.79
265.00	-53.59
265.37	-57.79
265.74	-41.00
266.11	-31.96
266.48	-8.07
266.85	8.72
267.22	9.36
267.59	8.07
267.96	21.95
268.33	10.01
268.70	5.17
269.07	-12.91
269.44	-24.86
269.81	-12.91
270.18	3.23
270.55	-15.17
270.92	-5.81
271.29	-3.55
271.66	10.98
272.03	27.12
272.40	23.24
272.77	8.39
273.14	20.34
273.51	42.29
273.88	31.31
274.25	16.46
274.62	9.04
274.99	6.46
275.36	13.88
275.73	17.11
276.10	1.29
276.47	17.11
276.84	34.22
277.21	30.02
277.58	20.02
277.94	21.31
278.31	14.85
278.68	22.92
279.05	9.36
279.42	-9.36
279.79	-8.39
280.16	-6.13
280.53	-19.69
280.90	-38.09
281.27	-64.24
281.64	-50.36
282.01	-50.36
282.37	-49.72
282.74	-35.51
283.11	-20.98
283.48	-14.85
283.85	-4.52
284.22	-7.43
284.59	-0.97
284.96	-14.85
285.33	-17.11
285.69	-26.80
286.06	-18.72
286.43	-25.50
286.80	-24.54
287.17	-10.98
287.54	8.72
287.91	9.04
288.27	24.54
288.64	26.15
289.01	37.77
289.38	36.80
289.75	18.72
290.12	26.15
290.48	7.10
290.85	-10.65
291.22	-28.41
291.59	-36.80
291.96	-46.81
292.33	-41.00
292.69	-43.91
293.06	-19.69
293.43	-10.98
293.80	7.10
294.17	14.53
294.53	26.15
294.90	39.39
295.27	36.48
295.64	37.45
296.01	45.84
296.37	49.39
296.74	47.78
297.11	36.16
297.48	19.37
297.84	9.68
298.21	7.43
298.58	-6.46
298.95	-15.17
299.31	-21.63
299.68	-2.58
300.05	-9.68
300.42	-0.97
300.78	-16.46
301.15	-17.43
301.52	-10.33
301.89	13.24
302.25	-1.61
302.62	16.46
302.99	8.72
303.35	4.84
303.72	5.49
304.09	-7.75
304.46	-29.05
304.82	-23.57
305.19	-34.54
305.56	-38.42
305.92	-25.50
306.29	-10.33
306.66	7.43
307.02	-12.59
307.39	-20.98
307.76	-20.98
308.12	-1.61
308.49	-18.08
308.86	-28.41
309.23	-35.19
309.59	-19.05
309.96	-17.11
310.32	-8.39
310.69	-24.54
311.06	-6.78
311.42	-2.91
311.79	-11.30
312.16	-2.58
312.52	-0.32
312.89	-4.52
313.26	-4.84
313.62	-3.55
313.99	-7.43
314.35	5.49
314.72	10.98
315.09	9.04
315.45	5.17
315.82	6.78
316.19	3.87
316.55	-0.65
316.92	10.33
317.28	12.91
317.65	6.46
318.02	5.49
318.38	-6.46
318.75	-6.78
319.11	-6.46
319.48	-22.60
319.84	-28.09
320.21	-26.47
320.58	-8.72
320.94	23.24
321.31	24.21
321.67	27.44
322.04	32.28
322.40	30.67
322.77	38.74
323.13	29.05
323.50	11.94
323.86	5.17
324.23	18.08
324.60	13.56
324.96	17.76
325.33	2.58
325.69	-1.61
326.06	0.32
326.42	-8.07
326.79	-31.96
327.15	-42.61
327.52	-56.50
327.88	-41.00
328.25	-40.03
328.61	-48.75
328.98	-23.57
329.34	-20.98
329.71	-18.40
330.07	-10.98
330.44	-19.05
330.80	-29.70
331.16	-33.57
331.53	-34.54
331.89	-20.66
332.26	2.91
332.62	0.65
332.99	16.79
333.35	47.13
333.72	59.08
334.08	47.46
334.45	40.03
334.81	28.73
335.17	33.90
335.54	28.73
335.90	9.36
336.27	-10.98
336.63	0.97
337.00	3.87
337.36	-1.61
337.72	-16.46
338.09	-26.15
338.45	-28.09
338.82	-4.84
339.18	-22.60
339.54	-28.09
339.91	-14.53
340.27	11.30
340.63	4.20
341.00	7.75
341.36	16.14
341.73	21.31
342.09	33.25
342.45	41.00
342.82	41.65
343.18	48.75
343.54	65.86
343.91	62.31
344.27	67.15
344.63	55.20
345.00	52.30
345.36	42.61
345.72	43.91
346.09	17.76
346.45	28.41
346.81	26.80
347.18	52.94
347.54	39.39
347.90	32.28
348.27	25.50
348.63	23.89
348.99	-21.95
349.36	-21.31
349.72	-36.80
350.08	-39.06
350.45	-54.56
350.81	-45.52
351.17	-29.38
351.53	-1.94
351.90	1.61
352.26	-11.62
352.62	-14.53
352.98	5.17
353.35	6.46
353.71	-9.04
354.07	-10.65
354.44	-23.89
354.80	-8.72
355.16	1.29
355.52	-3.87
355.88	-16.46
356.25	-13.56
356.61	-30.02
356.97	-31.96
357.33	-43.26
357.70	-41.32
358.06	-37.13
358.42	-29.70
358.78	-45.84
359.15	-32.93
359.51	-32.93
359.87	-41.65
360.23	-42.29
360.59	-41.32
360.95	-34.54
361.32	-20.34
361.68	-26.47
362.04	-28.09
362.40	-15.17
362.76	-24.21
363.13	-29.38
363.49	-30.02
363.85	-25.50
364.21	-32.93
364.57	-19.05
364.93	-18.72
365.30	-11.30
365.66	-14.20
366.02	-11.30
366.38	-9.36
366.74	19.37
367.10	13.56
367.46	8.72
367.83	0.00
368.19	4.52
368.55	-0.97
368.91	-2.26
369.27	-8.07
369.63	2.26
369.99	7.43
370.35	6.13
370.71	17.11
371.08	21.31
371.44	23.57
371.80	32.61
372.16	38.74
372.52	26.80
372.88	32.93
373.24	22.28
373.60	28.09
373.96	31.64
374.32	22.28
374.68	19.37
375.04	23.24
375.40	18.72
375.76	29.05
376.13	24.21
376.49	26.15
376.85	26.15
377.21	31.96
377.57	31.96
377.93	36.48
378.29	16.46
378.65	8.39
379.01	9.04
379.37	4.20
379.73	-12.59
380.09	5.81
380.45	-6.13
380.81	0.00
381.17	7.75
381.53	12.91
381.89	16.14
382.25	13.56
382.61	10.98
382.97	14.53
383.33	17.43
383.69	15.82
384.05	12.91
384.41	15.82
384.77	27.12
385.13	30.02
385.49	30.35
385.85	19.69
386.20	26.80
386.56	12.91
386.92	-1.61
387.28	-11.62
387.64	-28.09
388.00	-24.86
388.36	-17.11
388.72	-5.81
389.08	-10.33
389.44	3.55
389.80	10.33
390.16	18.08
390.52	30.02
390.88	36.48
391.23	16.14
391.59	29.38
391.95	19.05
392.31	3.55
392.67	-7.43
393.03	-9.68
393.39	-15.82
393.75	-3.55
394.11	6.13
394.46	10.01
394.82	26.47
395.18	30.99
395.54	23.24
395.90	21.31
396.26	8.07
396.62	-14.20
396.97	-4.20
397.33	-13.56
397.69	-27.76
398.05	-30.02
398.41	-22.92
398.77	-27.44
399.12	-16.46
399.48	-16.79
399.84	0.65
400.20	6.46
400.56	11.94
400.91	7.75
401.27	4.84
401.63	8.72
401.99	-8.72
402.35	-19.05
402.70	-27.44
403.06	-31.64
403.42	-27.44
403.78	-5.81
404.14	-10.01
404.49	6.46
404.85	3.23
405.21	13.88
405.57	21.95
405.92	26.80
406.28	3.23
406.64	-2.58
407.00	-11.94
407.35	-16.46
407.71	-17.43
408.07	-21.31
408.43	-26.80
408.78	-20.02
409.14	-7.75
409.50	-2.58
409.85	9.68
410.21	24.86
410.57	22.92
410.93	28.73
411.28	38.42
411.64	37.77
412.00	22.28
412.35	26.80
412.71	22.28
413.07	11.94
413.42	5.49
413.78	4.84
414.14	-10.33
414.49	-5.81
414.85	3.23
415.21	-1.61
415.56	7.43
415.92	13.24
416.28	21.95
416.63	27.76
416.99	34.54
417.35	22.60
417.70	18.72
418.06	18.08
418.42	27.44
418.77	16.14
419.13	20.98
419.48	20.34
419.84	14.85
420.20	24.54
420.55	14.20
420.91	3.23
421.27	11.94
421.62	24.86
421.98	26.15
422.33	20.98
422.69	33.57
423.05	47.46
423.40	36.80
423.76	28.73
424.11	4.84
424.47	6.78
424.82	30.99
425.18	10.33
425.54	11.94
425.89	17.76
426.25	11.94
426.60	20.34
426.96	15.17
427.31	-3.55
427.67	-3.23
428.02	-0.32
428.38	-8.07
428.73	-1.29
429.09	-6.46
429.44	-11.30
429.80	-4.52
430.15	2.58
430.51	7.10
430.86	9.36
431.22	4.52
431.57	20.34
431.93	24.86
432.28	22.60
432.64	17.11
432.99	13.24
433.35	30.67
433.70	19.37
434.06	2.91
434.41	-9.36
434.77	-18.72
435.12	-22.28
435.48	-52.62
435.83	-56.17
436.19	-40.68
436.54	-40.35
436.89	-31.96
437.25	-31.96
437.60	-36.48
437.96	-17.43
438.31	-15.82
438.67	-21.31
439.02	-18.40
439.37	-16.14
439.73	-17.76
440.08	-2.26
440.44	-0.97
440.79	-1.29
441.15	-9.04
441.50	-3.87
441.85	-3.23
442.21	0.65
442.56	-7.43
442.91	0.00
443.27	-6.46
443.62	-0.65
443.98	-8.72
444.33	-20.98
444.68	-28.09
445.04	-25.50
445.39	-20.66
445.74	-21.95
446.10	-22.92
446.45	-17.76
446.80	14.53
447.16	13.24
447.51	15.82
447.86	17.43
448.22	21.63
448.57	15.82
448.92	3.23
449.28	-5.17
449.63	-2.26
449.98	-3.55
450.34	-4.84
450.69	-15.50
451.04	-11.62
451.40	7.75
451.75	-1.29
452.10	-1.61
452.45	-0.65
452.81	5.17
453.16	3.55
453.51	14.85
453.86	12.91
454.22	10.65
454.57	22.28
454.92	16.79
455.27	4.84
455.63	11.30
455.98	15.50
456.33	-11.62
456.68	-15.50
457.04	-26.80
457.39	-19.37
457.74	-11.62
458.09	-14.53
458.45	-29.05
458.80	-23.57
459.15	-17.76
459.50	-15.82
459.85	-25.50
460.21	-18.72
460.56	-15.82
460.91	5.81
461.26	23.89
461.61	16.14
461.97	22.92
462.32	36.80
462.67	17.76
463.02	24.86
463.37	5.17
463.72	-3.87
464.08	-5.81
464.43	-22.28
464.78	-16.14
465.13	-6.46
465.48	-11.94
465.83	-0.65
466.18	8.07
466.54	19.05
466.89	33.90
467.24	23.24
467.59	16.79
467.94	18.72
468.29	15.50
468.64	15.50
468.99	11.62
469.34	12.59
469.70	13.88
470.05	14.85
470.40	11.94
470.75	3.55
471.10	-7.10
471.45	-21.31
471.80	-30.99
472.15	-42.29
472.50	-39.39
472.85	-45.84
473.20	-48.10
473.55	-41.32
473.90	-32.28
474.25	-44.55
474.61	-25.50
474.96	-22.60
475.31	-13.88
475.66	-4.52
476.01	2.26
476.36	10.01
476.71	50.04
477.06	51.01
477.41	68.12
477.76	64.57
478.11	62.31
478.46	57.46
478.81	45.52
479.16	13.24
479.51	11.94
479.86	-14.85
480.21	-2.58
480.56	-7.43
480.91	-16.46
481.26	0.00
481.61	13.56
481.96	8.07
482.31	14.20
482.66	5.49
483.00	10.65
483.35	24.54
483.70	14.53
484.05	10.98
484.40	6.13
484.75	-0.32
485.10	-2.26
485.45	4.84
485.80	-7.43
486.15	0.97
486.50	-4.84
486.85	-11.94
487.20	-15.17
487.55	-11.94
487.89	-22.60
488.24	-6.13
488.59	-6.78
488.94	0.65
489.29	-5.81
489.64	2.58
489.99	-3.55
490.34	0.65
490.68	-5.17
491.03	-6.13
491.38	1.94
491.73	14.53
492.08	11.94
492.43	14.53
492.78	18.40
493.12	3.87
493.47	-9.68
493.82	-29.05
494.17	-35.83
494.52	-32.93
494.87	-28.09
495.21	-54.88
495.56	-31.96
495.91	-20.66
496.26	-8.07
496.61	1.94
496.95	-9.04
497.30	-15.50
497.65	7.43
498.00	7.10
498.35	10.65
498.69	2.58
499.04	-12.27
499.39	-2.91
499.74	6.13
500.08	-4.52
500.43	-15.82
500.78	-27.44
501.13	-28.41
501.48	-26.15
501.82	-21.95
502.17	-30.02
502.52	-26.47
502.86	-41.97
503.21	-36.16
503.56	-30.67
503.91	-28.41
504.25	-30.02
504.60	-37.77
504.95	-43.26
505.30	-18.40
505.64	-10.33
505.99	-8.39
506.34	3.87
506.68	6.13
507.03	7.10
507.38	22.60
507.72	22.92
508.07	16.46
508.42	15.82
508.76	3.23
509.11	16.46
509.46	35.83
509.80	26.15
510.15	12.91
510.50	10.33
510.84	13.56
511.19	25.50
511.54	6.46
511.88	7.43
512.23	22.28
512.57	39.39
512.92	41.00
513.27	43.91
513.61	54.24
513.96	53.59
514.31	44.87
514.65	36.48
515.00	5.49
515.34	3.23
515.69	1.29
516.03	14.53
516.38	-2.58
516.73	-10.65
517.07	-32.61
517.42	-18.40
517.76	-18.08
518.11	-10.01
518.45	-41.32
518.80	-25.50
519.15	-13.88
519.49	13.88
519.84	25.83
520.18	15.17
520.53	-14.20
520.87	-24.86
521.22	-23.89
521.56	-24.21
521.91	-37.45
522.25	-50.04
522.60	-28.73
522.94	5.17
523.29	20.98
523.63	39.06
523.98	22.60
524.32	31.31
524.67	33.57
525.01	27.12
525.36	7.75
525.70	0.65
526.05	-16.79
526.39	-19.37
526.74	-16.79
527.08	-20.34
527.43	-38.74
527.77	-35.51
528.12	-26.15
528.46	-18.72
528.80	-6.78
529.15	-2.91
529.49	12.91
529.84	28.73
530.18	27.12
530.53	10.98
530.87	22.28
531.21	23.89
531.56	15.17
531.90	3.23
532.25	10.01
532.59	8.39
532.93	30.02
533.28	14.53
533.62	28.41
533.97	23.89
534.31	19.05
534.65	9.68
535.00	30.35
535.34	29.38
535.68	35.19
536.03	3.55
536.37	10.65
536.71	17.76
537.06	18.40
537.40	8.39
537.74	2.58
538.09	-7.10
538.43	17.76
538.77	5.17
539.12	20.98
539.46	14.53
539.80	1.61
540.15	-14.85
540.49	-13.24
540.83	-15.50
541.18	1.61
541.52	-3.55
541.86	21.31
542.20	29.38
542.55	34.22
542.89	52.62
543.23	49.39
543.58	42.94
543.92	32.28
544.26	15.17
544.60	14.20
544.95	41.00
545.29	25.18
545.63	8.72
545.97	-3.87
546.32	-10.33
546.66	0.65
547.00	11.30
547.34	-11.62
547.68	-1.61
548.03	3.87
548.37	2.26
548.71	14.20
549.05	0.32
549.39	0.97
549.74	-8.39
550.08	-17.43
550.42	-8.39
550.76	7.75
551.10	-20.02
551.45	-13.88
551.79	-23.89
552.13	-14.85
552.47	-12.91
552.81	-12.27
553.15	-3.23
553.50	12.91
553.84	5.17
554.18	4.84
554.52	20.98
554.86	23.57
555.20	18.40
555.54	4.52
555.88	-0.97
556.23	-16.79
556.57	-13.88
556.91	-37.13
557.25	-40.68
557.59	-35.51
557.93	-31.64
558.27	-2.91
558.61	10.01
558.95	0.97
559.29	20.34
559.64	15.82
559.98	-16.14
560.32	-20.66
560.66	-42.94
561.00	-33.25
561.34	-44.23
561.68	-50.68
562.02	-52.30
562.36	-13.88
562.70	-3.23
563.04	-0.65
563.38	7.10
563.72	23.24
564.06	21.31
564.40	31.31
564.74	33.90
565.08	25.50
565.42	24.54
565.76	19.05
566.10	32.93
566.44	31.96
566.78	22.92
567.12	10.33
567.46	10.33
567.80	18.40
568.14	20.02
568.48	11.62
568.82	16.14
569.16	2.58
569.50	5.81
569.84	-5.81
570.18	34.54
570.52	38.74
570.86	39.06
571.20	48.75
571.54	49.72
571.88	56.82
572.22	72.31
572.55	22.28
572.89	13.56
573.23	18.40
573.57	-9.04
573.91	5.81
574.25	-12.59
574.59	-20.98
574.93	-22.60
575.27	-21.31
575.61	-40.68
575.94	-32.61
576.28	-37.77
576.62	-38.09
576.96	-38.09
577.30	-14.85
577.64	-4.84
577.98	4.20
578.32	9.04
578.65	12.91
578.99	33.25
579.33	36.48
579.67	19.37
580.01	20.98
580.35	11.62
580.68	13.56
581.02	15.50
581.36	-2.26
581.70	-8.07
582.04	-16.46
582.37	-23.24
582.71	-9.68
583.05	-1.61
583.39	-10.33
583.73	-12.91
584.06	1.94
584.40	13.56
584.74	20.66
585.08	-0.97
585.41	2.26
585.75	2.58
586.09	18.08
586.43	2.26
586.76	-3.23
587.10	-14.20
587.44	2.91
587.78	-18.40
588.11	-24.21
588.45	-27.76
588.79	-26.80
589.13	-25.18
589.46	-29.70
589.80	-28.41
590.14	-21.31
590.47	-7.43
590.81	-15.17
591.15	-11.62
591.48	-17.76
591.82	-14.85
592.16	-22.28
592.50	-18.08
592.83	-22.60
593.17	-7.75
593.51	-14.53
593.84	-2.58
594.18	-4.20
594.51	11.62
594.85	17.43
595.19	3.55
595.52	-1.94
595.86	8.72
596.20	6.13
596.53	25.18
596.87	11.62
597.21	-1.29
597.54	27.76
597.88	27.12
598.21	39.39
598.55	46.81
598.89	30.35
599.22	26.15
599.56	20.34
599.89	10.01
600.23	16.46
600.57	-12.59
600.90	-33.25
601.24	-38.09
601.57	-23.57
601.91	-30.35
602.24	-40.35
602.58	-51.01
602.91	-36.80
603.25	-32.93
603.58	-29.38
603.92	-37.77
604.26	-14.20
604.59	-12.27
604.93	-18.40
605.26	-11.30
605.60	10.33
605.93	18.08
606.27	7.75
606.60	2.26
606.94	26.15
607.27	27.76
607.61	26.47
607.94	14.53
608.28	17.43
608.61	28.73
608.95	18.72
609.28	15.17
609.61	24.21
609.95	31.31
610.28	32.93
610.62	22.92
610.95	28.73
611.29	45.20
611.62	29.05
611.96	15.82
612.29	7.75
612.62	2.58
612.96	1.29
613.29	3.23
613.63	-11.62
613.96	-8.07
614.29	7.10
614.63	8.72
614.96	10.65
615.30	14.85
615.63	17.76
615.96	16.14
616.30	13.56
616.63	14.53
616.97	24.86
617.30	26.80
617.63	22.92
617.97	13.88
618.30	18.72
618.63	8.07
618.97	-9.04
619.30	-27.12
619.63	-33.57
619.97	-30.35
620.30	-30.35
620.63	-16.79
620.97	-3.87
621.30	6.78
621.63	-1.94
621.97	5.81
622.30	2.26
622.63	9.68
622.96	-3.87
623.30	-1.61
623.63	-14.53
623.96	-6.78
624.30	0.00
624.63	9.36
624.96	3.55
625.29	-2.26
625.63	-15.50
625.96	-0.65
626.29	8.07
626.62	1.61
626.96	-6.13
627.29	-0.32
627.62	10.65
627.95	12.27
628.28	18.72
628.62	20.34
628.95	1.29
629.28	-6.46
629.61	-6.13
629.95	-1.29
630.28	8.07
630.61	7.43
630.94	3.87
631.27	11.94
631.60	26.15
631.94	22.28
632.27	34.54
632.60	43.58
632.93	38.74
633.26	32.28
633.59	37.77
633.93	30.99
634.26	21.63
634.59	2.58
634.92	0.97
635.25	-0.97
635.58	8.72
635.91	0.65
636.24	-11.62
636.58	0.97
636.91	0.65
637.24	-14.85
637.57	-19.69
637.90	-32.93
638.23	-25.83
638.56	-18.72
638.89	-31.64
639.22	-37.13
639.55	-38.74
639.88	-30.99
640.22	-18.40
640.55	-25.50
640.88	-21.31
641.21	-25.18
641.54	-17.43
641.87	0.00
642.20	3.55
642.53	-7.43
642.86	-6.46
643.19	-8.07
643.52	-12.91
643.85	-26.15
644.18	-29.38
644.51	-50.04
644.84	-44.87
645.17	-23.57
645.50	-34.54
645.83	-12.91
646.16	6.46
646.49	-12.27
646.82	16.46
647.15	24.86
647.48	20.02
647.81	34.87
648.14	19.37
648.47	5.17
648.80	0.32
649.13	-23.24
649.46	-33.90
649.79	-32.28
650.11	-27.76
650.44	-19.37
650.77	-15.82
651.10	-4.84
651.43	9.36
651.76	4.52
652.09	-11.94
652.42	-22.60
652.75	-13.88
653.08	-8.07
653.41	5.49
653.73	4.84
654.06	16.79
654.39	22.60
654.72	31.31
655.05	26.80
655.38	26.47
655.71	18.08
656.04	22.28
656.36	27.44
656.69	28.09
657.02	27.12
657.35	10.33
657.68	-5.17
658.01	-11.30
658.33	-6.78
658.66	-18.08
658.99	-17.11
659.32	-17.43
659.65	-11.30
659.97	-9.36
660.30	-6.46
660.63	-13.24
660.96	-10.98
661.29	-8.39
661.61	-18.72
661.94	-10.98
662.27	1.61
662.60	19.37
662.92	0.00
663.25	-11.94
663.58	-5.17
663.91	-2.26
664.23	-8.07
664.56	9.36
664.89	1.94
665.22	9.68
665.54	35.19
665.87	20.98
666.20	21.63
666.53	17.43
666.85	5.81
667.18	1.94
667.51	1.94
667.83	-22.60
668.16	-18.72
668.49	-28.41
668.81	-25.18
669.14	-36.80
669.47	-29.05
669.79	-25.83
670.12	-19.05
670.45	-41.97
670.77	-37.45
671.10	-41.32
671.43	-39.71
671.75	-47.13
672.08	-57.46
672.41	-65.54
672.73	-46.81
673.06	-32.28
673.39	-16.46
673.71	-16.79
674.04	-28.41
674.36	-23.57
674.69	-3.87
675.02	11.62
675.34	1.61
675.67	-10.65
675.99	-10.33
676.32	16.46
676.64	31.96
676.97	16.46
677.30	14.20
677.62	13.88
677.95	10.33
678.27	16.46
678.60	-6.13
678.92	-10.98
679.25	-6.46
679.57	-19.69
679.90	-10.98
680.22	4.52
680.55	2.26
680.88	0.97
681.20	-1.29
681.53	-6.78
681.85	4.20
682.18	7.10
682.50	-11.30
682.83	-15.82
683.15	-10.01
683.47	-5.49
683.80	-12.27
684.12	-19.69
684.45	-35.83
684.77	-20.34
685.10	-25.83
685.42	-20.02
685.75	-22.60
686.07	-17.11
686.40	-12.91
686.72	-3.23
687.04	-6.78
687.37	4.20
687.69	14.53
688.02	8.07
688.34	22.60
688.67	16.14
688.99	17.76
689.31	15.17
689.64	26.80
689.96	16.46
690.28	27.44
690.61	23.24
690.93	24.54
691.26	35.83
691.58	32.61
691.90	17.11
692.23	11.30
692.55	17.43
692.87	26.80
693.20	26.15
693.52	10.01
693.84	8.72
694.17	19.05
694.49	15.82
694.81	0.00
695.14	-9.68
695.46	-14.20
695.78	-3.55
696.11	-9.36
696.43	-13.56
696.75	-9.68
697.08	-11.94
697.40	-27.12
697.72	-8.72
698.04	-9.04
698.37	8.39
698.69	-2.26
699.01	-2.26
699.33	8.72
699.66	26.15
699.98	14.20
700.30	19.37
700.62	6.78
700.95	-0.65
701.27	6.13
701.59	11.62
701.91	-2.91
702.24	-14.53
702.56	-28.73
702.88	-20.98
703.20	7.43
703.52	5.49
703.85	-8.07
704.17	5.81
704.49	20.34
704.81	23.89
705.13	21.31
705.45	12.59
705.78	9.68
706.10	-1.94
706.42	-17.76
706.74	-13.56
707.06	-10.33
707.38	-7.43
707.71	-15.82
708.03	-23.57
708.35	-17.43
708.67	-18.40
708.99	-46.49
709.31	-57.14
709.63	-66.83
709.95	-68.44
710.27	-61.34
710.60	-43.58
710.92	-43.58
711.24	-26.15
711.56	-29.38
711.88	-30.67
712.20	-33.57
712.52	-38.42
712.84	-38.74
713.16	-14.85
713.48	2.26
713.80	10.98
714.12	18.72
714.44	31.96
714.76	48.75
715.08	30.35
715.40	26.47
715.72	11.30
716.04	-7.10
716.36	-10.01
716.68	-4.52
717.00	-15.50
717.32	-3.87
717.64	3.87
717.96	1.94
718.28	24.54
718.60	40.68
718.92	36.80
719.24	25.83
719.56	23.24
719.88	2.91
720.20	13.56
720.52	8.39
720.84	-13.88
721.16	-12.91
721.48	9.36
721.80	10.65
722.12	14.20
722.44	6.46
722.76	5.81
723.08	5.49
723.40	3.55
723.72	-16.79
724.03	-15.50
724.35	-7.43
724.67	-6.78
724.99	-10.33
725.31	-0.32
725.63	6.78
725.95	-1.29
726.27	-13.88
726.58	-23.57
726.90	-17.76
727.22	-3.55
727.54	-6.13
727.86	-14.53
728.18	17.11
728.50	30.02
728.81	63.92
729.13	59.40
729.45	45.20
729.77	47.46
730.09	58.76
730.40	22.60
730.72	17.76
731.04	-30.99
731.36	-26.15
731.68	-19.05
731.99	-19.05
732.31	-36.80
732.63	-26.15
732.95	-23.24
733.27	-2.91
733.58	-6.13
733.90	-4.84
734.22	-9.04
734.54	15.17
734.85	21.63
735.17	27.76
735.49	12.91
735.80	-0.65
736.12	-21.95
736.44	-43.91
736.76	-60.37
737.07	-47.46
737.39	-57.79
737.71	-53.91
738.02	-30.35
738.34	4.20
738.66	23.24
738.97	13.88
739.29	3.23
739.61	0.97
739.93	15.82
740.24	7.10
740.56	-10.33
740.87	0.32
741.19	-0.97
741.51	3.87
741.82	15.50
742.14	30.35
742.46	23.24
742.77	13.56
743.09	17.11
743.41	10.65
743.72	0.00
744.04	-8.39
744.35	-23.89
744.67	-17.76
744.99	-7.10
745.30	-37.45
745.62	-24.21
745.93	-3.55
746.25	-17.76
746.56	-12.91
746.88	-6.78
747.20	-1.29
747.51	12.91
747.83	9.68
748.14	-2.26
748.46	22.60
748.77	6.13
749.09	-0.65
749.40	0.00
749.72	16.46
750.03	18.72
750.35	0.97
750.66	-0.97
750.98	15.17
751.29	21.31
751.61	13.88
751.92	11.62
752.24	9.68
752.55	24.86
752.87	16.14
753.18	-15.17
753.50	-29.05
753.81	-32.93
754.13	-44.55
754.44	-59.08
754.76	-58.43
755.07	-64.89
755.38	-45.84
755.70	-50.04
756.01	-42.94
756.33	-36.80
756.64	-22.92
756.95	-27.76
757.27	-13.56
757.58	-8.72
757.90	5.81
758.21	10.65
758.52	10.98
758.84	12.27
759.15	20.34
759.47	24.54
759.78	26.80
760.09	41.32
760.41	34.22
760.72	39.71
761.03	44.55
761.35	29.38
761.66	22.60
761.97	11.62
762.29	-24.86
762.60	-32.61
762.91	-30.35
763.23	-32.61
763.54	-21.63
763.85	-18.40
764.17	-3.23
764.48	20.98
764.79	18.72
765.10	4.20
765.42	-1.29
765.73	-1.29
766.04	-5.81
766.36	-12.27
766.67	-19.05
766.98	-10.65
767.29	-1.61
767.61	7.43
767.92	11.30
768.23	2.91
768.54	-11.62
768.86	-10.33
769.17	2.58
769.48	3.55
769.79	20.34
770.10	18.40
770.42	12.91
770.73	29.05
771.04	24.54
771.35	1.94
771.66	0.00
771.98	-26.15
772.29	-37.77
772.60	-39.71
772.91	-45.84
773.22	-29.70
773.53	-25.50
773.85	-30.02
774.16	-27.44
774.47	-23.89
774.78	-15.50
775.09	-4.20
775.40	-16.14
775.71	-8.39
776.02	0.65
776.34	7.75
776.65	15.50
776.96	29.38
777.27	21.95
777.58	27.12
777.89	27.76
778.20	7.43
778.51	6.46
778.82	2.58
779.13	5.17
779.44	13.88
779.75	14.85
780.06	11.30
780.38	34.87
780.69	34.87
781.00	29.38
781.31	23.24
781.62	19.37
781.93	18.72
782.24	21.63
782.55	22.92
782.86	14.85
783.17	23.57
783.48	11.94
783.79	10.33
784.10	5.49
784.41	1.29
784.72	-7.10
785.03	0.65
785.34	0.00
785.65	10.01
785.96	6.78
786.27	7.10
786.57	7.10
786.88	7.43
787.19	7.43
787.50	-2.91
787.81	-6.78
788.12	-7.75
788.43	3.23
788.74	7.75
789.05	6.78
789.36	8.39
789.67	19.05
789.98	32.61
790.29	36.48
790.59	24.54
790.90	31.96
791.21	20.98
791.52	22.92
791.83	25.50
792.14	21.31
792.45	17.11
792.75	32.28
793.06	20.66
793.37	25.83
793.68	13.56
793.99	6.46
794.30	-2.91
794.60	1.94
794.91	-3.23
795.22	6.13
795.53	13.24
795.84	20.66
796.15	30.99
796.45	27.76
796.76	49.39
797.07	33.57
797.38	29.38
797.68	21.63
797.99	27.44
798.30	29.38
798.61	28.41
798.91	8.07
799.22	39.71
799.53	56.82
799.84	58.76
800.14	63.28
800.45	71.67
800.76	86.52
801.07	94.27
801.37	62.31
801.68	44.23
801.99	42.61
802.29	32.28
802.60	1.29
802.91	-7.43
803.22	-26.15
803.52	-19.37
803.83	-20.98
804.14	-24.54
804.44	-27.12
804.75	-17.11
805.06	-25.18
805.36	-26.80
805.67	-43.26
805.97	-32.61
806.28	-16.14
806.59	-1.94
806.89	8.39
807.20	9.36
807.51	31.96
807.81	46.81
808.12	33.25
808.42	19.37
808.73	5.17
809.04	0.97
809.34	7.10
809.65	-1.61
809.95	2.58
810.26	2.58
810.56	0.32
810.87	9.68
811.18	16.79
811.48	24.54
811.79	21.31
812.09	22.92
812.40	25.18
812.70	16.79
813.01	3.55
813.31	-20.98
813.62	-19.37
813.92	-19.37
814.23	-22.60
814.53	-22.60
814.84	9.04
815.14	-4.20
815.45	0.65
815.75	3.87
816.06	12.91
816.36	9.68
816.67	18.08
816.97	8.07
817.28	30.02
817.58	42.29
817.89	20.98
818.19	6.13
818.49	3.55
818.80	8.72
819.10	0.32
819.41	-6.78
819.71	-4.52
820.01	8.72
820.32	11.30
820.62	0.00
820.93	-6.13
821.23	4.84
821.53	8.07
821.84	-0.97
822.14	-11.62
822.45	-13.56
822.75	0.00
823.05	-4.52
823.36	0.65
823.66	-4.52
823.96	0.00
824.27	-1.61
824.57	-0.32
824.87	3.55
825.18	19.69
825.48	-7.10
825.78	13.88
826.09	20.02
826.39	36.48
826.69	34.54
827.00	37.13
827.30	34.54
827.60	49.07
827.90	38.09
828.21	35.83
828.51	22.60
828.81	20.34
829.11	1.94
829.42	-27.12
829.72	-21.95
830.02	-30.99
830.32	-28.73
830.63	-16.79
830.93	-10.98
831.23	3.23
831.53	13.56
831.84	3.55
832.14	16.79
832.44	8.39
832.74	-3.55
833.04	-7.10
833.35	-12.91
833.65	4.52
833.95	11.30
834.25	-6.46
834.55	2.91
834.85	6.78
835.16	20.02
835.46	27.12
835.76	8.07
836.06	5.49
836.36	26.80
836.66	15.50
836.96	12.27
837.26	-2.58
837.57	-10.01
837.87	-27.44
838.17	-26.47
838.47	-50.04
838.77	-45.84
839.07	-51.01
839.37	-39.06
839.67	-25.50
839.97	-11.62
840.27	-19.69
840.57	-13.56
840.88	-15.17
841.18	6.78
841.48	2.91
841.78	1.29
842.08	18.40
842.38	19.05
842.68	25.50
842.98	34.87
843.28	24.54
843.58	19.69
843.88	15.17
844.18	13.24
844.48	24.54
844.78	23.89
845.08	33.25
845.38	35.19
845.68	33.90
845.98	20.02
846.28	3.55
846.58	-6.78
846.88	-3.87
847.18	-13.56
847.48	-12.91
847.78	-10.01
848.07	11.30
848.37	18.08
848.67	31.96
848.97	42.94
849.27	43.58
849.57	41.00
849.87	38.09
850.17	32.28
850.47	41.32
850.77	23.89
851.07	-1.29
851.36	-10.65
851.66	-9.36
851.96	-15.17
852.26	-17.76
852.56	-10.65
852.86	2.91
853.16	19.05
853.45	10.33
853.75	14.20
854.05	21.31
854.35	15.50
854.65	3.23
854.95	-5.17
855.24	-9.68
855.54	14.53
855.84	8.07
856.14	-3.87
856.44	-4.20
856.73	14.85
857.03	20.34
857.33	33.57
857.63	20.98
857.93	20.02
858.22	31.96
858.52	34.87
858.82	5.81
859.12	16.46
859.41	18.08
859.71	33.25
860.01	27.12
860.30	39.71
860.60	36.48
860.90	46.17
861.20	36.80
861.49	21.95
861.79	8.72
862.09	20.02
862.38	5.81
862.68	-0.97
862.98	1.94
863.27	-3.87
863.57	10.98
863.87	15.17
864.16	12.59
864.46	16.14
864.76	18.72
865.05	14.85
865.35	12.59
865.65	3.55
865.94	4.52
866.24	-9.36
866.54	-15.82
866.83	-5.49
867.13	3.23
867.42	14.53
867.72	10.98
868.02	-1.61
868.31	4.52
868.61	-0.32
868.90	-3.55
869.20	-1.61
869.49	4.84
869.79	4.84
870.08	17.76
870.38	36.16
870.68	55.53
870.97	60.37
871.27	57.46
871.56	27.12
871.86	32.28
872.15	26.80
872.45	5.81
872.74	-0.32
873.04	-2.91
873.33	6.78
873.63	11.94
873.92	4.84
874.22	-5.81
874.51	12.27
874.81	23.24
875.10	21.31
875.40	-1.29
875.69	8.07
875.98	8.39
876.28	35.51
876.57	25.18
876.87	11.30
877.16	15.17
877.46	30.67
877.75	36.16
878.04	32.61
878.34	24.21
878.63	22.60
878.93	18.40
879.22	6.46
879.51	-5.17
879.81	-6.78
880.10	-2.91
880.40	-29.05
880.69	-41.65
880.98	-36.16
881.28	-20.02
881.57	-17.43
881.86	-21.95
882.16	-24.21
882.45	-5.81
882.74	2.26
883.04	8.07
883.33	0.97
883.62	-8.39
883.92	42.94
884.21	-2.26
884.50	-67.79
>>>>>End Processed Spectral Data<<<<<
