SpectraSuite Data File
++++++++++++++++++++++++++++++++++++
Date: Fri Feb 20 12:14:49 EST 2015
User: Administrator
Dark Spectrum Present: Yes
Reference Spectrum Present: No
Number of Sampled Component Spectra: 1
Spectrometers: SB2+H01071
Integration Time (usec): 5000000 (SB2+H01071)
Spectra Averaged: 1 (SB2+H01071)
Boxcar Smoothing: 3 (SB2+H01071)
Correct for Electrical Dark: No (SB2+H01071)
Strobe/Lamp Enabled: Yes (SB2+H01071)
Correct for Detector Non-linearity: No (SB2+H01071)
Correct for Stray Light: No (SB2+H01071)
Number of Pixels in Processed Spectrum: 2048
>>>>>Begin Processed Spectral Data<<<<<
191.06	-67.79
191.43	-67.79
191.81	-67.79
192.19	-38.09
192.56	-25.18
192.94	-21.31
193.31	-25.83
193.69	-29.70
194.07	-27.44
194.44	-35.51
194.82	-30.35
195.19	-38.74
195.57	-39.71
195.95	-18.08
196.32	-10.65
196.70	-16.14
197.07	-13.88
197.45	-34.87
197.83	-20.66
198.20	-5.49
198.58	-13.56
198.95	-20.98
199.33	-17.43
199.70	-10.01
200.08	8.07
200.46	2.26
200.83	-17.76
201.21	-14.53
201.58	-8.39
201.96	0.65
202.33	2.91
202.71	0.65
203.09	-4.20
203.46	1.29
203.84	-0.32
204.21	2.58
204.59	-0.32
204.96	9.04
205.34	5.81
205.71	3.23
206.09	9.68
206.46	-11.62
206.84	-20.66
207.21	-15.50
207.59	-15.82
207.96	-8.07
208.34	0.00
208.71	-3.87
209.09	-3.87
209.46	-6.13
209.84	-6.46
210.21	-15.17
210.59	-0.32
210.96	-2.91
211.34	-4.52
211.71	2.26
212.09	6.46
212.46	-2.26
212.84	-7.75
213.21	-29.05
213.59	-21.95
213.96	-17.43
214.34	-3.23
214.71	3.55
215.08	9.36
215.46	7.75
215.83	18.72
216.21	12.91
216.58	7.10
216.96	-0.97
217.33	-4.84
217.70	-6.78
218.08	-1.61
218.45	-10.33
218.83	-15.17
219.20	-7.10
219.58	-1.61
219.95	-11.94
220.32	-9.36
220.70	-16.46
221.07	-21.95
221.45	-21.95
221.82	-23.89
222.19	-14.85
222.57	-7.10
222.94	-4.52
223.32	-3.87
223.69	7.75
224.06	16.14
224.44	14.53
224.81	9.36
225.18	1.29
225.56	6.78
225.93	18.40
226.31	26.15
226.68	14.20
227.05	14.53
227.43	0.32
227.80	-0.32
228.17	-10.65
228.55	-10.01
228.92	-22.28
229.29	-18.40
229.67	-14.53
230.04	-3.55
230.41	7.43
230.79	5.81
231.16	8.07
231.53	16.79
231.91	13.24
232.28	-5.17
232.65	8.72
233.03	0.65
233.40	24.21
233.77	5.17
234.15	5.17
234.52	12.27
234.89	28.09
235.26	3.55
235.64	7.75
236.01	-20.98
236.38	-4.20
236.76	-18.40
237.13	-19.37
237.50	-23.89
237.87	-20.02
238.25	-19.69
238.62	-8.39
238.99	-4.52
239.36	11.62
239.74	22.60
240.11	25.50
240.48	35.83
240.85	48.75
241.23	39.39
241.60	34.87
241.97	25.50
242.34	-0.97
242.72	-12.59
243.09	-10.98
243.46	-31.64
243.83	-22.28
244.20	-30.02
244.58	-24.54
244.95	-8.07
245.32	-2.26
245.69	-5.17
246.07	7.10
246.44	-3.23
246.81	11.94
247.18	8.72
247.55	-10.01
247.92	-6.78
248.30	-10.98
248.67	-12.27
249.04	-7.43
249.41	-9.04
249.78	-6.78
250.16	30.35
250.53	34.87
250.90	33.25
251.27	31.64
251.64	21.31
252.01	20.98
252.39	5.17
252.76	-10.98
253.13	-17.43
253.50	-33.90
253.87	-31.96
254.24	-20.98
254.61	-35.51
254.98	-29.38
255.36	-33.25
255.73	-24.21
256.10	-9.68
256.47	-3.55
256.84	6.46
257.21	-0.97
257.58	2.91
257.95	-2.26
258.33	0.65
258.70	-9.36
259.07	-25.18
259.44	-28.73
259.81	-11.94
260.18	-25.50
260.55	-18.40
260.92	-31.31
261.29	-3.23
261.66	16.46
262.03	12.59
262.40	11.30
262.77	20.98
263.15	15.50
263.52	11.94
263.89	-6.46
264.26	-28.73
264.63	-33.57
265.00	-44.55
265.37	-21.95
265.74	-14.85
266.11	-8.72
266.48	8.07
266.85	24.21
267.22	23.57
267.59	30.02
267.96	14.85
268.33	22.92
268.70	17.11
269.07	-1.29
269.44	2.91
269.81	0.97
270.18	4.20
270.55	-11.62
270.92	-32.28
271.29	-10.98
271.66	5.17
272.03	3.87
272.40	8.39
272.77	-2.91
273.14	16.14
273.51	32.61
273.88	8.72
274.25	4.84
274.62	-4.52
274.99	-3.55
275.36	19.37
275.73	12.27
276.10	19.05
276.47	33.90
276.84	43.58
277.21	40.03
277.58	36.80
277.94	39.71
278.31	39.71
278.68	37.13
279.05	32.61
279.42	10.01
279.79	4.52
280.16	9.04
280.53	-7.43
280.90	-18.08
281.27	-29.38
281.64	-5.81
282.01	0.32
282.37	10.01
282.74	10.33
283.11	11.94
283.48	21.31
283.85	15.17
284.22	-0.97
284.59	-5.49
284.96	-19.37
285.33	-14.20
285.69	-4.52
286.06	-1.94
286.43	5.17
286.80	10.65
287.17	25.83
287.54	41.00
287.91	29.70
288.27	28.73
288.64	25.50
289.01	39.71
289.38	34.54
289.75	17.11
290.12	25.50
290.48	26.47
290.85	23.57
291.22	16.14
291.59	-4.20
291.96	-13.56
292.33	-3.55
292.69	-18.72
293.06	-10.33
293.43	-21.63
293.80	-11.94
294.17	-9.68
294.53	0.65
294.90	6.13
295.27	27.76
295.64	35.51
296.01	54.88
296.37	57.14
296.74	54.56
297.11	48.75
297.48	41.65
297.84	31.31
298.21	12.27
298.58	-24.54
298.95	-31.64
299.31	-15.17
299.68	-8.39
300.05	-14.53
300.42	-17.11
300.78	-20.98
301.15	0.65
301.52	-4.20
301.89	-4.84
302.25	-18.08
302.62	-0.97
302.99	-5.49
303.35	-8.72
303.72	-8.07
304.09	-5.49
304.46	-11.94
304.82	-6.46
305.19	-8.39
305.56	1.94
305.92	12.59
306.29	23.24
306.66	24.21
307.02	0.32
307.39	-6.13
307.76	0.32
308.12	-3.87
308.49	-6.78
308.86	-25.50
309.23	-14.53
309.59	9.68
309.96	2.91
310.32	-7.75
310.69	-24.86
311.06	-27.76
311.42	-15.82
311.79	-29.05
312.16	-31.96
312.52	-6.46
312.89	-17.11
313.26	2.91
313.62	16.46
313.99	3.23
314.35	10.01
314.72	10.65
315.09	9.04
315.45	21.63
315.82	12.27
316.19	0.97
316.55	11.62
316.92	16.46
317.28	-0.32
317.65	-20.02
318.02	-42.61
318.38	-51.01
318.75	-55.20
319.11	-61.02
319.48	-62.31
319.84	-41.00
320.21	-39.71
320.58	-19.69
320.94	-1.61
321.31	1.61
321.67	8.07
322.04	-9.04
322.40	-20.02
322.77	-13.88
323.13	-4.84
323.50	-5.49
323.86	-8.39
324.23	-4.84
324.60	11.30
324.96	14.20
325.33	-3.55
325.69	-16.46
326.06	-22.92
326.42	-28.73
326.79	-45.52
327.15	-50.68
327.52	-50.04
327.88	-17.43
328.25	-18.08
328.61	-20.66
328.98	-3.87
329.34	15.17
329.71	8.07
330.07	2.26
330.44	-8.39
330.80	-13.56
331.16	-20.98
331.53	-19.69
331.89	-27.12
332.26	-0.32
332.62	7.75
332.99	14.85
333.35	42.29
333.72	60.05
334.08	60.37
334.45	51.01
334.81	43.26
335.17	38.09
335.54	28.41
335.90	9.04
336.27	-8.39
336.63	-11.30
337.00	5.49
337.36	-8.39
337.72	-13.88
338.09	-16.46
338.45	-13.88
338.82	-0.32
339.18	0.65
339.54	-0.97
339.91	12.91
340.27	17.43
340.63	15.82
341.00	6.78
341.36	0.32
341.73	-8.07
342.09	-9.36
342.45	-15.82
342.82	-17.76
343.18	-7.10
343.54	15.82
343.91	10.01
344.27	10.98
344.63	6.46
345.00	6.13
345.36	21.31
345.72	4.84
346.09	-27.12
346.45	2.91
346.81	-0.32
347.18	10.33
347.54	7.43
347.90	0.32
348.27	7.43
348.63	19.37
348.99	6.46
349.36	12.27
349.72	2.58
350.08	-15.17
350.45	-36.48
350.81	-24.21
351.17	-6.46
351.53	-16.14
351.90	-10.98
352.26	-15.82
352.62	10.98
352.98	21.95
353.35	21.63
353.71	12.91
354.07	19.05
354.44	7.43
354.80	12.59
355.16	10.01
355.52	17.11
355.88	2.58
356.25	-3.23
356.61	-10.98
356.97	-0.97
357.33	-2.91
357.70	1.29
358.06	5.49
358.42	-3.87
358.78	-19.05
359.15	-25.18
359.51	-33.90
359.87	-28.41
360.23	-31.96
360.59	-43.26
360.95	-28.41
361.32	-15.17
361.68	-5.17
362.04	-14.20
362.40	-21.95
362.76	-36.16
363.13	-21.95
363.49	-19.69
363.85	-4.84
364.21	-26.47
364.57	-17.43
364.93	-2.58
365.30	22.60
365.66	9.04
366.02	1.94
366.38	-6.78
366.74	30.35
367.10	41.97
367.46	37.45
367.83	22.92
368.19	35.51
368.55	38.74
368.91	33.25
369.27	20.02
369.63	22.28
369.99	9.04
370.35	6.13
370.71	0.65
371.08	5.17
371.44	3.23
371.80	6.13
372.16	10.33
372.52	12.59
372.88	16.79
373.24	14.85
373.60	26.80
373.96	25.18
374.32	22.60
374.68	23.24
375.04	37.13
375.40	34.54
375.76	47.78
376.13	32.61
376.49	43.26
376.85	46.81
377.21	47.46
377.57	42.61
377.93	42.94
378.29	43.58
378.65	56.82
379.01	54.24
379.37	44.87
379.73	25.50
380.09	35.83
380.45	31.31
380.81	11.30
381.17	-7.75
381.53	-3.87
381.89	0.65
382.25	12.59
382.61	-6.46
382.97	-2.58
383.33	1.29
383.69	6.13
384.05	-0.97
384.41	-0.97
384.77	-0.32
385.13	6.46
385.49	-11.30
385.85	-5.81
386.20	-2.91
386.56	-21.31
386.92	-29.70
387.28	-43.58
387.64	-46.17
388.00	-47.46
388.36	-58.76
388.72	-46.49
389.08	-38.74
389.44	-41.97
389.80	-42.61
390.16	-40.68
390.52	-24.54
390.88	-20.98
391.23	-39.39
391.59	-15.50
391.95	-6.46
392.31	-5.49
392.67	-24.21
393.03	0.00
393.39	-9.36
393.75	-9.04
394.11	-21.31
394.46	-14.20
394.82	7.75
395.18	15.17
395.54	-1.94
395.90	4.52
396.26	-4.52
396.62	-12.27
396.97	-18.08
397.33	-25.83
397.69	-29.70
398.05	-30.35
398.41	-22.92
398.77	-19.69
399.12	-12.59
399.48	-6.13
399.84	-17.76
400.20	-7.10
400.56	-5.17
400.91	-5.49
401.27	-2.58
401.63	-1.61
401.99	3.23
402.35	7.10
402.70	-7.43
403.06	-22.28
403.42	-28.73
403.78	-16.14
404.14	-10.65
404.49	-18.40
404.85	-23.89
405.21	-11.30
405.57	1.61
405.92	24.86
406.28	20.66
406.64	5.17
407.00	-3.23
407.35	12.59
407.71	4.84
408.07	-10.33
408.43	-28.41
408.78	-17.43
409.14	3.55
409.50	16.46
409.85	9.04
410.21	22.92
410.57	32.61
410.93	36.16
411.28	40.35
411.64	23.89
412.00	14.85
412.35	21.31
412.71	25.18
413.07	30.99
413.42	29.05
413.78	13.88
414.14	17.11
414.49	4.84
414.85	17.43
415.21	17.76
415.56	17.11
415.92	39.39
416.28	36.16
416.63	48.42
416.99	58.43
417.35	37.13
417.70	19.69
418.06	12.27
418.42	-2.26
418.77	-0.32
419.13	-16.46
419.48	-14.85
419.84	-14.53
420.20	-5.17
420.55	-15.50
420.91	-26.15
421.27	-22.28
421.62	-3.55
421.98	3.87
422.33	1.94
422.69	9.36
423.05	15.50
423.40	27.12
423.76	30.02
424.11	8.72
424.47	13.24
424.82	48.10
425.18	34.22
425.54	47.46
425.89	31.31
426.25	23.89
426.60	23.24
426.96	13.56
427.31	-22.60
427.67	-8.72
428.02	-10.33
428.38	4.84
428.73	-2.91
429.09	-8.39
429.44	-6.78
429.80	2.58
430.15	2.26
430.51	6.46
430.86	10.98
431.22	13.24
431.57	15.82
431.93	19.37
432.28	16.46
432.64	-3.55
432.99	-0.97
433.35	-2.91
433.70	-8.07
434.06	-1.61
434.41	-19.37
434.77	-16.14
435.12	7.10
435.48	-11.94
435.83	-27.12
436.19	-3.23
436.54	-5.81
436.89	4.52
437.25	1.94
437.60	-16.46
437.96	-11.62
438.31	14.53
438.67	-0.00
439.02	12.91
439.37	12.59
439.73	10.98
440.08	29.05
440.44	21.95
440.79	-6.78
441.15	-10.01
441.50	-0.65
441.85	-2.91
442.21	10.65
442.56	5.49
442.91	3.87
443.27	17.76
443.62	33.25
443.98	24.21
444.33	23.57
444.68	7.75
445.04	7.75
445.39	20.34
445.74	13.24
446.10	3.23
446.45	-14.53
446.80	16.14
447.16	7.43
447.51	-10.33
447.86	-1.94
448.22	2.91
448.57	-2.91
448.92	-10.33
449.28	-39.71
449.63	-40.68
449.98	-29.05
450.34	-33.90
450.69	-41.97
451.04	-52.62
451.40	-27.44
451.75	-31.64
452.10	-19.05
452.45	-20.02
452.81	-16.79
453.16	-17.43
453.51	13.88
453.86	-6.46
454.22	-10.01
454.57	-17.43
454.92	-20.02
455.27	-40.03
455.63	-37.45
455.98	-47.13
456.33	-39.71
456.68	-36.16
457.04	-30.35
457.39	-27.44
457.74	-12.27
458.09	-15.50
458.45	-20.34
458.80	-20.98
459.15	0.32
459.50	-13.56
459.85	-12.91
460.21	-5.17
460.56	4.84
460.91	12.91
461.26	12.91
461.61	2.91
461.97	12.59
462.32	6.13
462.67	-7.75
463.02	-12.27
463.37	-19.37
463.72	-12.59
464.08	-15.17
464.43	-19.05
464.78	-7.10
465.13	-0.00
465.48	3.87
465.83	7.75
466.18	-2.91
466.54	-9.04
466.89	-8.07
467.24	-15.82
467.59	-29.05
467.94	-34.54
468.29	-49.39
468.64	-32.93
468.99	-27.12
469.34	-33.25
469.70	-27.76
470.05	-17.43
470.40	-21.31
470.75	-22.28
471.10	-29.70
471.45	-52.94
471.80	-41.65
472.15	-48.75
472.50	-51.98
472.85	-45.52
473.20	-46.49
473.55	-41.65
473.90	-20.66
474.25	-25.83
474.61	-17.43
474.96	-8.07
475.31	-0.65
475.66	12.91
476.01	16.14
476.36	28.41
476.71	50.36
477.06	59.40
477.41	61.34
477.76	53.27
478.11	52.30
478.46	49.07
478.81	32.61
479.16	17.11
479.51	12.91
479.86	9.68
480.21	18.72
480.56	25.18
480.91	14.85
481.26	28.73
481.61	42.29
481.96	36.16
482.31	26.47
482.66	23.89
483.00	17.43
483.35	15.82
483.70	4.52
484.05	-5.49
484.40	-5.49
484.75	-17.11
485.10	-20.98
485.45	-17.11
485.80	-13.24
486.15	-21.31
486.50	-42.94
486.85	-65.53
487.20	-48.10
487.55	-59.40
487.89	-82.00
488.24	-79.42
488.59	-49.72
488.94	-41.00
489.29	-31.31
489.64	-37.13
489.99	-34.22
490.34	-16.46
490.68	-22.60
491.03	-35.19
491.38	-11.62
491.73	-2.26
492.08	18.72
492.43	31.64
492.78	32.28
493.12	38.42
493.47	39.06
493.82	22.28
494.17	30.02
494.52	24.54
494.87	10.98
495.21	0.32
495.56	17.11
495.91	13.24
496.26	21.95
496.61	28.09
496.95	9.36
497.30	17.43
497.65	31.64
498.00	17.43
498.35	21.63
498.69	24.86
499.04	4.52
499.39	9.04
499.74	12.59
500.08	1.61
500.43	-6.46
500.78	-9.36
501.13	-31.64
501.48	-23.89
501.82	-9.36
502.17	-13.88
502.52	-6.46
502.86	-15.82
503.21	-30.99
503.56	-19.37
503.91	-22.28
504.25	-38.42
504.60	-36.16
504.95	-43.58
505.30	-21.95
505.64	-6.13
505.99	-6.13
506.34	-7.10
506.68	2.91
507.03	4.20
507.38	14.20
507.72	15.82
508.07	3.87
508.42	6.78
508.76	-4.52
509.11	7.43
509.46	22.92
509.80	15.82
510.15	9.36
510.50	14.20
510.84	17.43
511.19	27.76
511.54	25.18
511.88	18.08
512.23	37.45
512.57	56.50
512.92	48.10
513.27	36.48
513.61	55.53
513.96	41.32
514.31	39.71
514.65	29.70
515.00	0.65
515.34	15.82
515.69	14.20
516.03	28.09
516.38	28.09
516.73	7.75
517.07	-7.75
517.42	1.94
517.76	-5.17
518.11	7.10
518.45	-28.41
518.80	-35.51
519.15	-19.05
519.49	-2.26
519.84	8.72
520.18	0.32
520.53	-9.68
520.87	-1.29
521.22	-8.07
521.56	1.29
521.91	-3.23
522.25	-10.98
522.60	-0.00
522.94	11.62
523.29	5.81
523.63	24.86
523.98	-4.84
524.32	1.61
524.67	1.61
525.01	-10.65
525.36	-7.10
525.70	5.81
526.05	-6.13
526.39	-3.55
526.74	-5.81
527.08	-9.04
527.43	-7.43
527.77	-18.08
528.12	-26.47
528.46	-14.85
528.80	-10.65
529.15	-10.65
529.49	-3.87
529.84	14.53
530.18	17.43
530.53	14.53
530.87	19.37
531.21	30.67
531.56	29.38
531.90	20.66
532.25	5.49
532.59	10.33
532.93	15.82
533.28	11.94
533.62	13.56
533.97	0.65
534.31	0.65
534.65	10.65
535.00	17.11
535.34	13.88
535.68	18.08
536.03	8.72
536.37	18.08
536.71	27.12
537.06	29.70
537.40	25.18
537.74	21.31
538.09	6.13
538.43	13.24
538.77	7.75
539.12	6.46
539.46	-6.46
539.80	-16.79
540.15	-16.14
540.49	12.27
540.83	9.36
541.18	25.18
541.52	22.28
541.86	41.97
542.20	42.29
542.55	49.07
542.89	43.58
543.23	41.00
543.58	34.22
543.92	21.95
544.26	12.59
544.60	10.33
544.95	25.18
545.29	5.17
545.63	21.95
545.97	13.24
546.32	18.72
546.66	21.31
547.00	24.21
547.34	-2.91
547.68	-0.97
548.03	-11.62
548.37	-18.72
548.71	-4.20
549.05	-17.76
549.39	-15.50
549.74	-6.46
550.08	-8.39
550.42	-19.05
550.76	-7.10
551.10	-20.98
551.45	-13.56
551.79	-7.43
552.13	-7.43
552.47	-5.49
552.81	-0.97
553.15	2.26
553.50	1.29
553.84	5.81
554.18	0.00
554.52	9.36
554.86	24.54
555.20	29.05
555.54	19.69
555.88	19.37
556.23	5.81
556.57	10.65
556.91	-10.33
557.25	-12.27
557.59	-20.02
557.93	-5.49
558.27	7.10
558.61	11.62
558.95	0.65
559.29	19.05
559.64	4.52
559.98	-16.14
560.32	-17.76
560.66	-28.73
561.00	-17.43
561.34	-34.22
561.68	-25.18
562.02	-26.80
562.36	3.55
562.70	-6.78
563.04	-3.23
563.38	0.65
563.72	15.50
564.06	10.33
564.40	30.35
564.74	26.47
565.08	35.51
565.42	45.20
565.76	33.90
566.10	57.46
566.44	43.26
566.78	28.09
567.12	28.09
567.46	22.28
567.80	20.34
568.14	18.08
568.48	10.33
568.82	21.63
569.16	-3.55
569.50	8.72
569.84	4.52
570.18	18.08
570.52	39.39
570.86	32.61
571.20	30.67
571.54	56.82
571.88	45.84
572.22	57.79
572.55	45.84
572.89	29.05
573.23	41.00
573.57	25.50
573.91	35.51
574.25	36.80
574.59	28.41
574.93	9.36
575.27	1.61
575.61	-12.27
575.94	-17.43
576.28	-32.61
576.62	-20.34
576.96	-15.17
577.30	0.65
577.64	27.12
577.98	27.12
578.32	63.60
578.65	64.57
578.99	50.68
579.33	47.78
579.67	52.30
580.01	36.48
580.35	34.54
580.68	18.72
581.02	21.31
581.36	15.17
581.70	14.53
582.04	-3.23
582.37	-8.39
582.71	-13.24
583.05	-7.75
583.39	-11.94
583.73	-7.43
584.06	-12.91
584.40	3.87
584.74	3.23
585.08	-0.32
585.41	-14.85
585.75	-11.94
586.09	-8.39
586.43	-8.07
586.76	-34.54
587.10	-19.69
587.44	3.23
587.78	-8.07
588.11	-10.65
588.45	-20.02
588.79	-26.47
589.13	-10.33
589.46	-25.83
589.80	-38.42
590.14	-16.46
590.47	-30.99
590.81	-27.44
591.15	-26.47
591.48	-27.12
591.82	-21.95
592.16	-31.64
592.50	-38.09
592.83	-18.40
593.17	-12.59
593.51	7.10
593.84	1.94
594.18	4.52
594.51	26.47
594.85	28.09
595.19	32.93
595.52	40.68
595.86	20.98
596.20	48.75
596.53	53.59
596.87	44.23
597.21	41.00
597.54	42.61
597.88	20.98
598.21	30.67
598.55	20.34
598.89	10.01
599.22	4.52
599.56	2.58
599.89	-7.43
600.23	0.32
600.57	-0.97
600.90	-16.79
601.24	-9.04
601.57	-5.49
601.91	-15.82
602.24	-12.59
602.58	-9.36
602.91	-10.33
603.25	0.00
603.58	-8.07
603.92	-13.24
604.26	-5.49
604.59	-21.95
604.93	-19.05
605.26	-19.05
605.60	-9.04
605.93	-0.32
606.27	-0.32
606.60	10.33
606.94	42.94
607.27	34.54
607.61	46.81
607.94	38.42
608.28	36.80
608.61	44.55
608.95	46.49
609.28	41.97
609.61	51.33
609.95	66.18
610.28	78.13
610.62	65.86
610.95	71.35
611.29	70.70
611.62	53.27
611.96	45.52
612.29	21.31
612.62	1.94
612.96	11.30
613.29	9.36
613.63	7.43
613.96	8.07
614.29	12.27
614.63	15.82
614.96	2.26
615.30	3.55
615.63	8.72
615.96	7.43
616.30	13.56
616.63	18.40
616.97	30.35
617.30	54.56
617.63	49.72
617.97	43.26
618.30	37.13
618.63	25.50
618.97	8.39
619.30	1.94
619.63	-1.94
619.97	3.55
620.30	7.43
620.63	11.62
620.97	22.92
621.30	39.71
621.63	23.57
621.97	13.24
622.30	24.86
622.63	9.68
622.96	19.05
623.30	24.21
623.63	27.44
623.96	41.97
624.30	44.55
624.63	24.54
624.96	29.70
625.29	9.36
625.63	-1.61
625.96	0.97
626.29	-3.55
626.62	-8.07
626.96	-11.30
627.29	-18.08
627.62	-1.94
627.95	-5.49
628.28	4.20
628.62	2.58
628.95	-0.97
629.28	1.29
629.61	19.69
629.95	15.50
630.28	14.53
630.61	-2.58
630.94	-2.58
631.27	4.52
631.60	11.62
631.94	-0.97
632.27	10.65
632.60	25.18
632.93	22.92
633.26	9.36
633.59	12.27
633.93	5.49
634.26	14.53
634.59	-1.61
634.92	-12.91
635.25	-15.50
635.58	-17.76
635.91	-13.56
636.24	-8.07
636.58	-5.17
636.91	-8.72
637.24	-2.58
637.57	-12.27
637.90	2.58
638.23	2.58
638.56	-9.04
638.89	-18.40
639.22	-25.50
639.55	-25.83
639.88	-3.87
640.22	-4.52
640.55	-13.56
640.88	-9.36
641.21	-19.69
641.54	-11.94
641.87	-5.49
642.20	-27.76
642.53	-34.22
642.86	-27.12
643.19	-8.39
643.52	-6.46
643.85	-15.82
644.18	-27.76
644.51	-30.67
644.84	-19.05
645.17	-23.57
645.50	-53.27
645.83	-55.20
646.16	-28.73
646.49	-33.25
646.82	-8.07
647.15	-0.32
647.48	3.87
647.81	14.85
648.14	28.41
648.47	19.37
648.80	27.12
649.13	20.34
649.46	7.10
649.79	10.98
650.11	11.62
650.44	8.39
650.77	-2.26
651.10	1.94
651.43	0.65
651.76	-2.91
652.09	-10.01
652.42	-6.46
652.75	1.94
653.08	9.68
653.41	3.23
653.73	14.20
654.06	15.50
654.39	11.94
654.72	19.05
655.05	7.75
655.38	7.75
655.71	23.24
656.04	14.85
656.36	28.73
656.69	31.96
657.02	28.73
657.35	0.97
657.68	-12.27
658.01	-19.69
658.33	-19.69
658.66	-34.22
658.99	-27.44
659.32	-21.31
659.65	11.62
659.97	6.46
660.30	2.91
660.63	1.29
660.96	8.39
661.29	17.11
661.61	13.56
661.94	0.97
662.27	12.59
662.60	16.46
662.92	1.29
663.25	-9.36
663.58	-29.05
663.91	-46.49
664.23	-29.70
664.56	-13.24
664.89	-15.17
665.22	-12.59
665.54	-5.17
665.87	-1.29
666.20	6.78
666.53	-2.26
666.85	-5.17
667.18	6.78
667.51	24.86
667.83	17.11
668.16	7.10
668.49	5.17
668.81	15.50
669.14	20.34
669.47	21.95
669.79	35.83
670.12	32.93
670.45	40.35
670.77	48.10
671.10	24.86
671.43	7.43
671.75	-15.82
672.08	-24.86
672.41	-25.83
672.73	-16.14
673.06	-18.08
673.39	6.13
673.71	18.08
674.04	14.85
674.36	-6.46
674.69	12.27
675.02	10.98
675.34	9.36
675.67	-9.36
675.99	-16.14
676.32	0.65
676.64	0.65
676.97	-11.30
677.30	-15.82
677.62	-16.14
677.95	-3.55
678.27	-16.14
678.60	-18.08
678.92	-3.87
679.25	-5.17
679.57	0.32
679.90	-5.81
680.22	-6.46
680.55	15.82
680.88	2.26
681.20	-12.91
681.53	-3.23
681.85	9.36
682.18	18.72
682.50	15.17
682.83	9.36
683.15	12.27
683.47	18.72
683.80	7.10
684.12	-10.01
684.45	-11.94
684.77	-4.84
685.10	-12.91
685.42	-7.43
685.75	-6.78
686.07	-9.68
686.40	2.58
686.72	-4.84
687.04	-12.91
687.37	-7.75
687.69	7.43
688.02	9.36
688.34	21.31
688.67	0.00
688.99	5.17
689.31	10.65
689.64	15.82
689.96	2.26
690.28	20.34
690.61	28.73
690.93	54.56
691.26	56.50
691.58	35.83
691.90	27.44
692.23	13.24
692.55	-9.04
692.87	-3.87
693.20	-16.79
693.52	-10.65
693.84	-1.94
694.17	5.17
694.49	9.36
694.81	9.36
695.14	-8.72
695.46	-16.46
695.78	-16.79
696.11	-12.91
696.43	-12.59
696.75	-1.94
697.08	-18.08
697.40	-17.43
697.72	-10.98
698.04	-4.84
698.37	-0.65
698.69	-24.54
699.01	-32.61
699.33	-0.32
699.66	0.65
699.98	-2.58
700.30	-13.56
700.62	-5.17
700.95	16.46
701.27	28.41
701.59	27.12
701.91	21.31
702.24	8.07
702.56	-6.46
702.88	-2.26
703.20	10.65
703.52	1.61
703.85	-9.68
704.17	0.65
704.49	22.92
704.81	26.15
705.13	14.85
705.45	6.78
705.78	13.24
706.10	-10.33
706.42	-31.96
706.74	-31.64
707.06	-22.60
707.38	-21.95
707.71	-31.64
708.03	-41.65
708.35	-24.21
708.67	-12.27
708.99	-32.61
709.31	-34.87
709.63	-37.45
709.95	-41.32
710.27	-21.63
710.60	-1.29
710.92	-3.23
711.24	0.65
711.56	4.84
711.88	8.72
712.20	6.78
712.52	-15.17
712.84	-16.46
713.16	-7.75
713.48	4.52
713.80	7.10
714.12	-8.07
714.44	-3.87
714.76	20.98
715.08	-0.32
715.40	0.65
715.72	-10.33
716.04	-17.43
716.36	0.97
716.68	13.24
717.00	0.65
717.32	12.91
717.64	6.46
717.96	12.59
718.28	18.08
718.60	17.43
718.92	17.43
719.24	3.87
719.56	7.75
719.88	4.84
720.20	-4.52
720.52	-1.61
720.84	-22.60
721.16	-23.24
721.48	-2.26
721.80	-13.24
722.12	-2.58
722.44	4.84
722.76	2.91
723.08	6.78
723.40	-5.17
723.72	-23.57
724.03	-18.72
724.35	-22.92
724.67	-12.59
724.99	-6.46
725.31	2.91
725.63	9.36
725.95	11.94
726.27	0.65
726.58	-11.94
726.90	-13.88
727.22	-12.27
727.54	-21.95
727.86	-30.02
728.18	-10.98
728.50	-10.33
728.81	8.07
729.13	9.68
729.45	1.94
729.77	7.10
730.09	25.50
730.40	6.13
730.72	18.72
731.04	-4.20
731.36	-4.20
731.68	2.26
731.99	8.39
732.31	-2.91
732.63	2.58
732.95	10.65
733.27	29.70
733.58	21.95
733.90	12.59
734.22	1.29
734.54	5.17
734.85	11.94
735.17	0.65
735.49	3.23
735.80	-7.43
736.12	-4.52
736.44	-5.49
736.76	-18.72
737.07	-16.14
737.39	-16.14
737.71	-17.11
738.02	7.75
738.34	-0.97
738.66	-3.87
738.97	-4.20
739.29	-4.20
739.61	-11.30
739.93	-20.98
740.24	-46.17
740.56	-38.74
740.87	-28.73
741.19	-31.31
741.51	-39.71
741.82	-27.76
742.14	-0.97
742.46	14.85
742.77	5.81
743.09	25.83
743.41	9.68
743.72	0.97
744.04	-9.68
744.35	-18.08
744.67	-26.80
744.99	-22.28
745.30	-57.14
745.62	-8.39
745.93	1.29
746.25	-3.55
746.56	-14.53
746.88	-11.94
747.20	2.91
747.51	5.49
747.83	-2.26
748.14	-2.26
748.46	3.87
748.77	3.55
749.09	8.39
749.40	13.24
749.72	31.96
750.03	24.54
750.35	31.96
750.66	44.87
750.98	61.66
751.29	60.69
751.61	47.78
751.92	43.91
752.24	38.42
752.55	37.13
752.87	24.54
753.18	0.32
753.50	3.23
753.81	10.65
754.13	8.72
754.44	19.37
754.76	8.07
755.07	26.47
755.38	31.31
755.70	19.37
756.01	-2.91
756.33	-3.23
756.64	-15.50
756.95	-22.92
757.27	-35.19
757.58	-32.61
757.90	-7.75
758.21	15.17
758.52	21.31
758.84	27.76
759.15	41.00
759.47	61.66
759.78	66.18
760.09	63.92
760.41	73.61
760.72	89.10
761.03	90.07
761.35	90.39
761.66	53.91
761.97	56.82
762.29	21.95
762.60	-2.26
762.91	-28.41
763.23	-26.47
763.54	-16.14
763.85	10.01
764.17	3.55
764.48	26.15
764.79	21.95
765.10	31.31
765.42	20.34
765.73	11.94
766.04	-3.55
766.36	7.43
766.67	-2.91
766.98	7.43
767.29	0.32
767.61	3.23
767.92	4.84
768.23	2.58
768.54	-11.94
768.86	-2.26
769.17	-3.87
769.48	9.36
769.79	14.85
770.10	23.57
770.42	14.20
770.73	15.82
771.04	12.27
771.35	19.05
771.66	10.65
771.98	2.91
772.29	-19.37
772.60	-15.50
772.91	-14.20
773.22	-4.52
773.53	-11.94
773.85	3.23
774.16	9.68
774.47	19.69
774.78	27.44
775.09	41.00
775.40	37.45
775.71	39.71
776.02	36.80
776.34	39.71
776.65	37.77
776.96	46.17
777.27	30.67
777.58	25.50
777.89	11.94
778.20	-8.07
778.51	-21.95
778.82	-23.24
779.13	-23.24
779.44	-22.60
779.75	-27.12
780.06	-13.24
780.38	0.32
780.69	11.30
781.00	12.91
781.31	13.24
781.62	11.94
781.93	12.91
782.24	14.85
782.55	13.24
782.86	10.01
783.17	2.91
783.48	-10.33
783.79	-6.78
784.10	-1.29
784.41	-19.37
784.72	-24.54
785.03	-31.31
785.34	-29.70
785.65	-25.18
785.96	-23.89
786.27	-31.31
786.57	-14.53
786.88	-8.07
787.19	-4.52
787.50	-15.50
787.81	-2.58
788.12	-0.32
788.43	13.24
788.74	14.85
789.05	9.36
789.36	19.37
789.67	39.06
789.98	34.54
790.29	31.96
790.59	20.66
790.90	14.53
791.21	15.17
791.52	15.82
791.83	12.91
792.14	6.13
792.45	3.23
792.75	18.40
793.06	19.05
793.37	33.90
793.68	22.92
793.99	37.13
794.30	48.75
794.60	61.66
794.91	61.02
795.22	66.83
795.53	54.24
795.84	62.31
796.15	58.76
796.45	47.78
796.76	42.29
797.07	25.50
797.38	17.76
797.68	0.97
797.99	7.75
798.30	21.63
798.61	19.05
798.91	8.72
799.22	18.40
799.53	26.80
799.84	47.46
800.14	27.12
800.45	13.88
800.76	21.63
801.07	28.73
801.37	23.89
801.68	12.91
801.99	6.78
802.29	26.15
802.60	5.49
802.91	11.62
803.22	-0.32
803.52	7.10
803.83	3.23
804.14	-2.91
804.44	-20.02
804.75	-8.39
805.06	-30.02
805.36	-33.57
805.67	-47.78
805.97	-42.29
806.28	-36.48
806.59	-4.84
806.89	-13.24
807.20	-9.68
807.51	3.55
807.81	13.88
808.12	7.75
808.42	0.32
808.73	-23.89
809.04	-19.05
809.34	0.65
809.65	13.56
809.95	-6.46
810.26	21.63
810.56	21.95
810.87	16.14
811.18	9.04
811.48	6.78
811.79	-13.88
812.09	-0.32
812.40	-24.86
812.70	-22.60
813.01	-14.53
813.31	-11.62
813.62	-18.40
813.92	-3.23
814.23	0.00
814.53	3.23
814.84	41.32
815.14	39.71
815.45	45.84
815.75	53.59
816.06	67.47
816.36	70.70
816.67	65.21
816.97	32.28
817.28	41.00
817.58	47.46
817.89	31.96
818.19	4.20
818.49	5.17
818.80	16.14
819.10	14.53
819.41	7.10
819.71	6.46
820.01	7.43
820.32	4.84
820.62	-8.39
820.93	-11.94
821.23	-10.01
821.53	-15.50
821.84	-22.60
822.14	-20.02
822.45	-12.27
822.75	-8.39
823.05	-6.46
823.36	3.55
823.66	17.43
823.96	18.40
824.27	29.38
824.57	40.03
824.87	52.30
825.18	50.36
825.48	32.61
825.78	32.28
826.09	33.25
826.39	32.61
826.69	19.37
827.00	19.69
827.30	32.28
827.60	51.65
827.90	51.98
828.21	66.83
828.51	64.24
828.81	55.20
829.11	55.20
829.42	52.94
829.72	45.52
830.02	21.31
830.32	11.62
830.63	2.91
830.93	10.65
831.23	-5.49
831.53	-4.52
831.84	-7.10
832.14	10.98
832.44	3.87
832.74	7.75
833.04	5.17
833.35	7.75
833.65	10.01
833.95	10.01
834.25	-2.58
834.55	0.97
834.85	4.84
835.16	25.83
835.46	30.99
835.76	25.83
836.06	30.99
836.36	41.32
836.66	34.54
836.96	23.24
837.26	-0.32
837.57	5.81
837.87	-3.87
838.17	0.97
838.47	-8.07
838.77	-4.52
839.07	-0.65
839.37	7.75
839.67	13.24
839.97	15.50
840.27	-10.98
840.57	-4.84
840.88	-10.65
841.18	1.61
841.48	-3.87
841.78	-11.30
842.08	-10.98
842.38	6.13
842.68	8.72
842.98	23.24
843.28	4.84
843.58	19.37
843.88	16.79
844.18	18.40
844.48	31.96
844.78	35.19
845.08	36.48
845.38	52.62
845.68	38.74
845.98	39.39
846.28	28.09
846.58	3.55
846.88	-19.37
847.18	-36.48
847.48	-44.23
847.78	-35.51
848.07	-36.48
848.37	-29.38
848.67	-15.82
848.97	6.13
849.27	26.15
849.57	42.61
849.87	38.42
850.17	37.77
850.47	37.13
850.77	26.80
851.07	4.52
851.36	-12.27
851.66	-32.61
851.96	-32.28
852.26	-41.97
852.56	-28.73
852.86	-25.18
853.16	-11.30
853.45	-14.85
853.75	1.61
854.05	-2.26
854.35	12.59
854.65	-5.81
854.95	-17.43
855.24	-7.75
855.54	4.84
855.84	-9.04
856.14	-13.24
856.44	-22.28
856.73	-9.04
857.03	0.65
857.33	18.08
857.63	8.72
857.93	19.05
858.22	20.98
858.52	27.12
858.82	26.15
859.12	52.94
859.41	37.13
859.71	53.91
860.01	45.52
860.30	58.43
860.60	67.15
860.90	55.53
861.20	32.28
861.49	34.87
861.79	16.79
862.09	28.09
862.38	14.85
862.68	0.32
862.98	12.59
863.27	8.07
863.57	4.84
863.87	-0.65
864.16	-10.01
864.46	0.00
864.76	4.52
865.05	5.17
865.35	0.97
865.65	-6.78
865.94	10.65
866.24	9.68
866.54	10.65
866.83	13.24
867.13	25.83
867.42	48.75
867.72	47.46
868.02	20.66
868.31	18.08
868.61	10.01
868.90	6.13
869.20	5.49
869.49	-10.01
869.79	-10.33
870.08	7.10
870.38	12.59
870.68	25.50
870.97	25.83
871.27	11.30
871.56	-7.10
871.86	-0.97
872.15	6.13
872.45	0.32
872.74	1.61
873.04	8.39
873.33	13.24
873.63	22.60
873.92	10.33
874.22	1.29
874.51	14.53
874.81	8.07
875.10	8.72
875.40	-1.61
875.69	23.57
875.98	41.00
876.28	33.25
876.57	27.76
876.87	8.39
877.16	2.58
877.46	15.82
877.75	-8.07
878.04	-6.13
878.34	9.04
878.63	13.88
878.93	33.90
879.22	28.73
879.51	6.13
879.81	20.02
880.10	6.13
880.40	-20.34
880.69	-22.28
880.98	-30.35
881.28	-25.50
881.57	-5.49
881.86	-11.62
882.16	8.07
882.45	33.90
882.74	14.53
883.04	21.95
883.33	20.66
883.62	-2.91
883.92	24.86
884.21	6.78
884.50	-110.73
>>>>>End Processed Spectral Data<<<<<
