SpectraSuite Data File
++++++++++++++++++++++++++++++++++++
Date: Fri Feb 20 12:10:14 EST 2015
User: Administrator
Dark Spectrum Present: Yes
Reference Spectrum Present: No
Number of Sampled Component Spectra: 1
Spectrometers: SB2+H01071
Integration Time (usec): 5000000 (SB2+H01071)
Spectra Averaged: 1 (SB2+H01071)
Boxcar Smoothing: 3 (SB2+H01071)
Correct for Electrical Dark: No (SB2+H01071)
Strobe/Lamp Enabled: Yes (SB2+H01071)
Correct for Detector Non-linearity: No (SB2+H01071)
Correct for Stray Light: No (SB2+H01071)
Number of Pixels in Processed Spectrum: 2048
>>>>>Begin Processed Spectral Data<<<<<
191.06	-13.56
191.43	-13.56
191.81	-13.56
192.19	-24.54
192.56	-25.18
192.94	-33.25
193.31	-49.72
193.69	-38.09
194.07	-41.65
194.44	-35.19
194.82	-27.76
195.19	-29.70
195.57	-23.89
195.95	-19.05
196.32	-20.02
196.70	-25.83
197.07	-35.83
197.45	-50.36
197.83	-40.03
198.20	-31.31
198.58	-18.72
198.95	-21.95
199.33	-2.58
199.70	3.23
200.08	11.62
200.46	28.09
200.83	35.83
201.21	46.49
201.58	57.46
201.96	53.27
202.33	71.35
202.71	72.31
203.09	46.81
203.46	31.64
203.84	33.90
204.21	15.50
204.59	8.72
204.96	4.52
205.34	2.58
205.71	15.50
206.09	30.35
206.46	19.37
206.84	27.76
207.21	35.51
207.59	26.80
207.96	30.67
208.34	29.70
208.71	8.39
209.09	-2.91
209.46	-12.59
209.84	-10.01
210.21	-13.24
210.59	-11.62
210.96	-23.57
211.34	-29.70
211.71	-26.15
212.09	-5.49
212.46	-19.37
212.84	-16.79
213.21	-37.77
213.59	-30.35
213.96	-22.60
214.34	-26.15
214.71	-48.75
215.08	-40.35
215.46	-30.02
215.83	-7.43
216.21	-20.34
216.58	-20.02
216.96	-8.72
217.33	5.17
217.70	-0.32
218.08	-9.68
218.45	-18.72
218.83	-18.72
219.20	-7.10
219.58	-12.27
219.95	-31.96
220.32	-14.20
220.70	-22.60
221.07	-23.24
221.45	-15.17
221.82	-20.34
222.19	-26.47
222.57	-17.11
222.94	-18.40
223.32	-15.17
223.69	0.97
224.06	0.32
224.44	-1.94
224.81	10.65
225.18	12.91
225.56	12.27
225.93	29.38
226.31	20.66
226.68	20.34
227.05	13.88
227.43	9.04
227.80	16.14
228.17	5.17
228.55	-4.84
228.92	-11.94
229.29	-11.30
229.67	-1.29
230.04	-5.49
230.41	-13.24
230.79	-20.66
231.16	-12.91
231.53	-15.50
231.91	-20.34
232.28	-17.76
232.65	-8.07
233.03	4.20
233.40	35.83
233.77	24.54
234.15	36.80
234.52	53.59
234.89	55.53
235.26	60.69
235.64	38.74
236.01	11.94
236.38	8.72
236.76	3.87
237.13	-21.95
237.50	-35.51
237.87	-51.33
238.25	-30.35
238.62	-21.31
238.99	-10.65
239.36	-12.91
239.74	4.20
240.11	11.62
240.48	19.69
240.85	13.24
241.23	8.72
241.60	0.00
241.97	9.36
242.34	-1.61
242.72	-0.65
243.09	-10.65
243.46	-11.94
243.83	-13.56
244.20	-8.07
244.58	-24.21
244.95	-19.05
245.32	-18.40
245.69	-11.62
246.07	-17.11
246.44	-13.88
246.81	-13.56
247.18	-9.36
247.55	-16.79
247.92	-14.20
248.30	-14.53
248.67	-1.29
249.04	-12.27
249.41	-10.65
249.78	-2.26
250.16	28.09
250.53	31.31
250.90	30.02
251.27	14.85
251.64	16.46
252.01	24.54
252.39	25.83
252.76	9.36
253.13	-3.55
253.50	-15.82
253.87	-7.75
254.24	0.97
254.61	-19.37
254.98	-29.70
255.36	-45.52
255.73	-28.09
256.10	-23.89
256.47	-23.24
256.84	-21.95
257.21	-7.75
257.58	-17.11
257.95	-9.68
258.33	-5.17
258.70	3.55
259.07	-5.81
259.44	-3.23
259.81	3.23
260.18	7.43
260.55	13.24
260.92	-21.31
261.29	-14.53
261.66	-10.65
262.03	-23.89
262.40	-41.00
262.77	-21.31
263.15	-21.63
263.52	-5.81
263.89	-19.69
264.26	-18.72
264.63	-14.20
265.00	-7.43
265.37	-0.97
265.74	-6.46
266.11	-5.49
266.48	20.66
266.85	30.35
267.22	31.31
267.59	18.72
267.96	2.58
268.33	9.36
268.70	11.94
269.07	-5.17
269.44	-4.52
269.81	-10.65
270.18	17.76
270.55	5.81
270.92	-4.20
271.29	13.24
271.66	29.38
272.03	26.47
272.40	40.03
272.77	13.24
273.14	28.09
273.51	38.42
273.88	16.46
274.25	-6.13
274.62	1.29
274.99	-7.75
275.36	7.75
275.73	5.17
276.10	25.18
276.47	32.28
276.84	43.58
277.21	24.21
277.58	9.36
277.94	13.88
278.31	16.79
278.68	-1.94
279.05	-5.49
279.42	-4.20
279.79	-10.01
280.16	-13.24
280.53	-14.20
280.90	-30.35
281.27	-47.78
281.64	-31.31
282.01	-37.77
282.37	-24.86
282.74	-5.49
283.11	-7.43
283.48	0.65
283.85	5.81
284.22	-2.91
284.59	-9.36
284.96	-8.39
285.33	-2.58
285.69	-3.87
286.06	-0.65
286.43	4.52
286.80	15.50
287.17	35.51
287.54	41.65
287.91	34.87
288.27	31.31
288.64	24.21
289.01	45.84
289.38	27.44
289.75	14.20
290.12	16.79
290.48	19.37
290.85	14.85
291.22	6.46
291.59	-31.31
291.96	-49.72
292.33	-61.66
292.69	-75.87
293.06	-71.35
293.43	-69.41
293.80	-63.60
294.17	-37.13
294.53	-20.34
294.90	-8.07
295.27	5.81
295.64	7.10
296.01	12.91
296.37	25.18
296.74	23.24
297.11	20.34
297.48	11.94
297.84	14.20
298.21	12.91
298.58	4.84
298.95	-1.61
299.31	-9.36
299.68	6.78
300.05	22.28
300.42	14.85
300.78	-5.17
301.15	0.65
301.52	0.97
301.89	9.68
302.25	-11.94
302.62	-18.40
302.99	-24.54
303.35	-8.72
303.72	-11.30
304.09	-16.46
304.46	-15.50
304.82	-1.29
305.19	2.58
305.56	-3.55
305.92	-8.72
306.29	0.97
306.66	8.72
307.02	-6.13
307.39	-19.69
307.76	-23.24
308.12	-6.46
308.49	-13.24
308.86	-20.66
309.23	-10.65
309.59	0.97
309.96	2.58
310.32	8.72
310.69	7.10
311.06	19.05
311.42	15.17
311.79	0.32
312.16	-11.94
312.52	8.72
312.89	10.33
313.26	6.46
313.62	6.78
313.99	5.81
314.35	11.94
314.72	25.50
315.09	14.20
315.45	15.50
315.82	2.91
316.19	0.97
316.55	-1.29
316.92	4.20
317.28	3.87
317.65	10.98
318.02	-8.39
318.38	0.65
318.75	-7.75
319.11	-3.87
319.48	-14.53
319.84	-9.04
320.21	-21.31
320.58	1.61
320.94	31.64
321.31	27.44
321.67	26.80
322.04	35.19
322.40	20.34
322.77	27.76
323.13	20.34
323.50	-1.29
323.86	10.65
324.23	15.17
324.60	19.05
324.96	20.98
325.33	2.58
325.69	-1.29
326.06	-5.17
326.42	-14.20
326.79	-26.15
327.15	-32.61
327.52	-41.65
327.88	-21.95
328.25	-28.09
328.61	-21.31
328.98	-13.88
329.34	-8.72
329.71	-19.37
330.07	-11.62
330.44	-29.38
330.80	-17.43
331.16	-29.05
331.53	-20.98
331.89	-5.81
332.26	10.01
332.62	13.56
332.99	33.25
333.35	37.13
333.72	38.74
334.08	24.21
334.45	5.17
334.81	-0.32
335.17	1.61
335.54	-1.29
335.90	-8.39
336.27	-16.14
336.63	-4.20
337.00	10.33
337.36	17.43
337.72	24.21
338.09	26.47
338.45	20.34
338.82	33.57
339.18	28.09
339.54	26.15
339.91	30.99
340.27	25.18
340.63	21.95
341.00	11.94
341.36	33.25
341.73	33.25
342.09	32.93
342.45	26.80
342.82	35.51
343.18	40.03
343.54	69.09
343.91	40.35
344.27	37.13
344.63	20.66
345.00	28.41
345.36	21.63
345.72	17.76
346.09	-4.52
346.45	7.75
346.81	4.20
347.18	19.05
347.54	5.81
347.90	-3.87
348.27	-17.11
348.63	-17.76
348.99	-34.22
349.36	-21.31
349.72	-15.82
350.08	-13.88
350.45	-19.37
350.81	7.43
351.17	24.54
351.53	30.02
351.90	26.15
352.26	7.10
352.62	9.04
352.98	4.84
353.35	-14.85
353.71	-31.31
354.07	-21.31
354.44	-27.12
354.80	-9.04
355.16	-8.39
355.52	14.53
355.88	12.91
356.25	19.05
356.61	9.68
356.97	16.14
357.33	6.46
357.70	7.10
358.06	-4.84
358.42	-2.58
358.78	-31.96
359.15	-27.12
359.51	-34.87
359.87	-48.42
360.23	-55.20
360.59	-55.53
360.95	-55.20
361.32	-20.34
361.68	-25.18
362.04	-25.50
362.40	-9.68
362.76	-5.81
363.13	4.84
363.49	13.24
363.85	11.30
364.21	1.94
364.57	3.87
364.93	4.20
365.30	6.78
365.66	6.78
366.02	-10.65
366.38	-18.08
366.74	-5.81
367.10	11.30
367.46	19.05
367.83	8.07
368.19	7.75
368.55	14.20
368.91	14.85
369.27	5.81
369.63	-2.26
369.99	-12.59
370.35	6.46
370.71	1.61
371.08	8.07
371.44	5.17
371.80	30.02
372.16	39.39
372.52	51.98
372.88	39.71
373.24	30.35
373.60	38.42
373.96	50.36
374.32	40.35
374.68	34.87
375.04	20.34
375.40	19.05
375.76	28.41
376.13	23.89
376.49	32.28
376.85	27.76
377.21	33.25
377.57	40.03
377.93	42.29
378.29	43.58
378.65	33.90
379.01	34.54
379.37	31.64
379.73	18.40
380.09	28.09
380.45	23.57
380.81	14.85
381.17	23.89
381.53	11.94
381.89	8.72
382.25	10.01
382.61	-2.91
382.97	-1.29
383.33	-4.20
383.69	-4.84
384.05	-6.13
384.41	-2.26
384.77	6.13
385.13	15.82
385.49	8.39
385.85	20.98
386.20	26.47
386.56	7.43
386.92	0.65
387.28	-17.11
387.64	-25.18
388.00	-30.02
388.36	-34.22
388.72	-31.31
389.08	-22.92
389.44	-18.72
389.80	-5.49
390.16	-3.87
390.52	8.39
390.88	3.55
391.23	1.61
391.59	8.39
391.95	-0.97
392.31	-11.94
392.67	-31.64
393.03	-17.43
393.39	-23.57
393.75	-26.47
394.11	-19.69
394.46	23.57
394.82	49.72
395.18	60.05
395.54	50.68
395.90	71.67
396.26	61.66
396.62	54.56
396.97	30.35
397.33	8.39
397.69	11.30
398.05	-0.97
398.41	-12.27
398.77	-20.98
399.12	-15.17
399.48	-12.27
399.84	-11.30
400.20	-13.88
400.56	-10.65
400.91	-10.98
401.27	-13.56
401.63	-20.02
401.99	-20.98
402.35	-21.95
402.70	-27.12
403.06	-25.50
403.42	-29.05
403.78	-13.24
404.14	-2.26
404.49	-6.46
404.85	-9.04
405.21	1.94
405.57	-3.23
405.92	10.65
406.28	10.01
406.64	-12.59
407.00	-21.63
407.35	-24.54
407.71	-27.12
408.07	-17.76
408.43	-27.12
408.78	-26.47
409.14	7.10
409.50	22.28
409.85	24.21
410.21	27.12
410.57	23.89
410.93	32.28
411.28	31.64
411.64	11.62
412.00	0.32
412.35	8.39
412.71	6.78
413.07	4.52
413.42	-7.75
413.78	-1.61
414.14	-2.91
414.49	-17.76
414.85	-16.46
415.21	-12.59
415.56	-7.75
415.92	8.39
416.28	2.58
416.63	4.52
416.99	34.87
417.35	25.83
417.70	14.20
418.06	9.68
418.42	7.75
418.77	7.43
419.13	2.58
419.48	-23.24
419.84	-35.19
420.20	-18.72
420.55	-27.76
420.91	-39.39
421.27	-23.89
421.62	-6.13
421.98	13.24
422.33	32.28
422.69	31.64
423.05	43.58
423.40	47.13
423.76	34.87
424.11	16.46
424.47	14.20
424.82	29.05
425.18	16.79
425.54	22.28
425.89	3.23
426.25	-1.29
426.60	-3.55
426.96	-22.60
427.31	-35.51
427.67	-35.83
428.02	-37.77
428.38	-12.59
428.73	-15.50
429.09	-14.85
429.44	-2.58
429.80	-8.07
430.15	3.55
430.51	17.11
430.86	11.62
431.22	5.81
431.57	11.94
431.93	15.17
432.28	18.72
432.64	11.30
432.99	3.55
433.35	10.65
433.70	6.46
434.06	4.20
434.41	0.97
434.77	6.46
435.12	16.79
435.48	-0.65
435.83	-2.26
436.19	13.56
436.54	12.59
436.89	8.07
437.25	5.81
437.60	-26.80
437.96	-19.37
438.31	-10.98
438.67	-19.69
439.02	-5.49
439.37	-6.13
439.73	-10.33
440.08	15.82
440.44	10.33
440.79	-5.49
441.15	-17.43
441.50	-22.28
441.85	-26.15
442.21	-16.46
442.56	-18.72
442.91	0.65
443.27	3.55
443.62	31.96
443.98	40.68
444.33	39.39
444.68	32.93
445.04	28.09
445.39	27.76
445.74	34.87
446.10	19.69
446.45	8.72
446.80	37.77
447.16	31.31
447.51	32.61
447.86	24.21
448.22	15.17
448.57	12.91
448.92	-1.61
449.28	-20.02
449.63	-21.63
449.98	-21.63
450.34	-10.01
450.69	-4.84
451.04	0.97
451.40	13.24
451.75	12.91
452.10	12.59
452.45	10.01
452.81	10.33
453.16	-3.87
453.51	-10.01
453.86	-8.72
454.22	-18.72
454.57	-17.76
454.92	-24.21
455.27	-38.42
455.63	-21.95
455.98	-13.24
456.33	-25.83
456.68	-25.50
457.04	-21.63
457.39	3.87
457.74	1.61
458.09	-5.49
458.45	-10.65
458.80	-9.68
459.15	20.34
459.50	22.60
459.85	0.32
460.21	5.81
460.56	2.58
460.91	7.43
461.26	10.01
461.61	-15.82
461.97	-25.83
462.32	-11.62
462.67	-14.53
463.02	3.23
463.37	14.20
463.72	31.31
464.08	26.80
464.43	20.66
464.78	11.94
465.13	20.02
465.48	18.40
465.83	14.85
466.18	3.55
466.54	12.91
466.89	10.33
467.24	16.14
467.59	3.55
467.94	-6.13
468.29	-16.46
468.64	-18.40
468.99	-18.40
469.34	-15.17
469.70	-23.57
470.05	-17.11
470.40	-25.18
470.75	-41.32
471.10	-45.20
471.45	-49.72
471.80	-40.35
472.15	-39.06
472.50	-44.23
472.85	-34.87
473.20	-6.13
473.55	16.46
473.90	21.31
474.25	20.34
474.61	27.76
474.96	32.61
475.31	25.83
475.66	20.02
476.01	4.84
476.36	9.68
476.71	15.17
477.06	18.40
477.41	27.76
477.76	25.18
478.11	21.31
478.46	18.08
478.81	16.79
479.16	9.36
479.51	9.36
479.86	1.29
480.21	5.49
480.56	4.84
480.91	11.30
481.26	9.36
481.61	16.79
481.96	17.76
482.31	13.56
482.66	4.84
483.00	2.91
483.35	5.49
483.70	-1.94
484.05	-12.27
484.40	-27.12
484.75	-28.09
485.10	-14.20
485.45	-20.98
485.80	-34.22
486.15	-26.80
486.50	-25.18
486.85	-25.83
487.20	-23.57
487.55	-37.13
487.89	-36.80
488.24	-29.70
488.59	-24.86
488.94	-10.01
489.29	-6.46
489.64	-5.81
489.99	4.52
490.34	13.24
490.68	16.79
491.03	12.91
491.38	5.49
491.73	6.46
492.08	12.59
492.43	10.33
492.78	8.72
493.12	8.39
493.47	7.43
493.82	-10.98
494.17	-9.04
494.52	-15.50
494.87	-20.98
495.21	-35.51
495.56	-30.02
495.91	-20.34
496.26	8.07
496.61	19.69
496.95	28.41
497.30	48.10
497.65	57.46
498.00	45.52
498.35	42.29
498.69	21.31
499.04	2.58
499.39	-12.27
499.74	-25.50
500.08	-28.41
500.43	-27.44
500.78	-48.10
501.13	-42.94
501.48	-38.42
501.82	-21.95
502.17	-21.95
502.52	-12.59
502.86	-24.54
503.21	-22.60
503.56	-20.66
503.91	-20.66
504.25	-33.25
504.60	-31.64
504.95	-35.19
505.30	-7.10
505.64	5.81
505.99	9.68
506.34	23.89
506.68	28.41
507.03	16.46
507.38	22.92
507.72	13.88
508.07	7.75
508.42	24.21
508.76	6.13
509.11	10.65
509.46	27.12
509.80	12.59
510.15	1.61
510.50	4.52
510.84	-2.26
511.19	-0.65
511.54	0.65
511.88	8.72
512.23	45.52
512.57	54.56
512.92	53.59
513.27	38.42
513.61	47.13
513.96	38.09
514.31	28.09
514.65	-5.49
515.00	-9.04
515.34	-9.04
515.69	-2.58
516.03	-5.17
516.38	-10.65
516.73	-30.02
517.07	-35.51
517.42	-41.97
517.76	-38.74
518.11	-41.00
518.45	-48.75
518.80	-39.06
519.15	-9.04
519.49	15.82
519.84	35.19
520.18	14.85
520.53	9.68
520.87	9.04
521.22	-10.01
521.56	-19.69
521.91	-41.32
522.25	-54.88
522.60	-34.87
522.94	-30.99
523.29	-26.47
523.63	-9.68
523.98	-20.98
524.32	-4.52
524.67	-5.49
525.01	-11.62
525.36	-10.65
525.70	-10.98
526.05	-12.27
526.39	-6.46
526.74	-5.81
527.08	-4.84
527.43	-17.43
527.77	-35.19
528.12	-27.12
528.46	-20.98
528.80	-24.86
529.15	-23.24
529.49	-12.27
529.84	3.55
530.18	18.08
530.53	10.65
530.87	11.62
531.21	15.82
531.56	12.91
531.90	-3.23
532.25	-6.46
532.59	8.07
532.93	15.50
533.28	13.24
533.62	26.15
533.97	15.17
534.31	7.75
534.65	10.33
535.00	17.43
535.34	14.53
535.68	18.72
536.03	-6.13
536.37	5.49
536.71	16.79
537.06	12.27
537.40	-2.91
537.74	-18.40
538.09	-35.83
538.43	-26.80
538.77	-24.21
539.12	-13.88
539.46	-4.20
539.80	-7.43
540.15	3.87
540.49	24.86
540.83	31.96
541.18	74.25
541.52	78.77
541.86	83.61
542.20	88.46
542.55	84.90
542.89	85.87
543.23	83.94
543.58	43.91
543.92	28.09
544.26	24.21
544.60	20.66
544.95	39.06
545.29	23.57
545.63	21.95
545.97	4.20
546.32	7.10
546.66	13.88
547.00	26.47
547.34	13.24
547.68	28.09
548.03	20.66
548.37	27.44
548.71	33.90
549.05	19.69
549.39	7.43
549.74	-3.23
550.08	-20.98
550.42	-13.88
550.76	-24.21
551.10	-34.87
551.45	-28.41
551.79	-23.89
552.13	-17.76
552.47	-1.61
552.81	-2.91
553.15	14.20
553.50	8.39
553.84	8.72
554.18	11.94
554.52	23.57
554.86	23.24
555.20	29.70
555.54	23.89
555.88	36.48
556.23	30.02
556.57	20.98
556.91	0.65
557.25	-9.36
557.59	-29.38
557.93	-30.99
558.27	-25.50
558.61	-19.69
558.95	-12.91
559.29	15.17
559.64	10.01
559.98	-3.23
560.32	7.10
560.66	-3.23
561.00	-0.65
561.34	-17.11
561.68	-15.17
562.02	-12.59
562.36	30.35
562.70	20.34
563.04	25.83
563.38	28.09
563.72	40.68
564.06	28.41
564.40	47.13
564.74	31.64
565.08	20.02
565.42	11.94
565.76	2.58
566.10	15.17
566.44	10.33
566.78	0.97
567.12	-1.29
567.46	20.34
567.80	20.02
568.14	22.60
568.48	21.95
568.82	18.08
569.16	-5.49
569.50	-10.98
569.84	-21.31
570.18	6.46
570.52	13.24
570.86	10.65
571.20	18.72
571.54	21.63
571.88	32.93
572.22	31.96
572.55	5.49
572.89	6.13
573.23	11.94
573.57	-4.84
573.91	20.34
574.25	28.73
574.59	23.57
574.93	24.86
575.27	13.24
575.61	-0.32
575.94	6.13
576.28	-1.61
576.62	-13.24
576.96	-0.32
577.30	2.91
577.64	17.43
577.98	19.37
578.32	41.00
578.65	34.22
578.99	34.54
579.33	24.54
579.67	26.47
580.01	27.44
580.35	23.24
580.68	4.84
581.02	0.65
581.36	0.00
581.70	-2.91
582.04	-5.49
582.37	-17.76
582.71	-21.31
583.05	-10.33
583.39	-14.20
583.73	-23.89
584.06	-34.22
584.40	-27.44
584.74	-26.47
585.08	-36.16
585.41	-40.68
585.75	-26.15
586.09	-15.50
586.43	2.91
586.76	-0.65
587.10	-0.65
587.44	27.44
587.78	22.28
588.11	20.02
588.45	9.36
588.79	-19.37
589.13	-13.88
589.46	-20.02
589.80	-30.35
590.14	-16.79
590.47	-34.54
590.81	-31.96
591.15	-15.50
591.48	-31.31
591.82	-24.86
592.16	-29.70
592.50	-39.71
592.83	-30.99
593.17	-18.08
593.51	-0.97
593.84	10.01
594.18	14.53
594.51	19.69
594.85	30.99
595.19	32.28
595.52	17.11
595.86	6.13
596.20	6.46
596.53	23.57
596.87	29.05
597.21	19.05
597.54	30.99
597.88	28.09
598.21	27.12
598.55	30.99
598.89	5.81
599.22	-6.78
599.56	-11.94
599.89	-20.02
600.23	4.52
600.57	14.53
600.90	8.39
601.24	3.23
601.57	6.13
601.91	0.00
602.24	8.72
602.58	3.87
602.91	-1.61
603.25	-3.87
603.58	12.59
603.92	21.95
604.26	36.16
604.59	22.92
604.93	5.49
605.26	5.49
605.60	20.66
605.93	17.11
606.27	-2.58
606.60	-7.75
606.94	2.26
607.27	8.72
607.61	11.94
607.94	10.01
608.28	5.81
608.61	19.37
608.95	11.94
609.28	15.17
609.61	10.01
609.95	20.66
610.28	18.72
610.62	21.95
610.95	12.59
611.29	14.53
611.62	10.65
611.96	18.40
612.29	12.59
612.62	-1.94
612.96	-10.98
613.29	-11.62
613.63	-1.29
613.96	-6.13
614.29	-18.72
614.63	-37.13
614.96	-35.19
615.30	-19.69
615.63	-14.85
615.96	-15.17
616.30	-10.65
616.63	-0.32
616.97	17.76
617.30	27.76
617.63	16.46
617.97	20.66
618.30	14.20
618.63	4.20
618.97	9.68
619.30	9.36
619.63	12.27
619.97	18.72
620.30	15.17
620.63	25.18
620.97	34.22
621.30	29.38
621.63	20.34
621.97	22.60
622.30	32.93
622.63	39.71
622.96	41.65
623.30	44.87
623.63	55.53
623.96	60.05
624.30	58.43
624.63	52.62
624.96	38.74
625.29	21.63
625.63	12.59
625.96	1.61
626.29	-15.17
626.62	-31.31
626.96	-37.13
627.29	-33.25
627.62	-29.70
627.95	-36.80
628.28	-20.34
628.62	-10.65
628.95	-21.95
629.28	-34.54
629.61	-37.77
629.95	-33.57
630.28	-29.38
630.61	-37.13
630.94	-29.05
631.27	-19.69
631.60	-6.13
631.94	-7.75
632.27	-0.32
632.60	10.65
632.93	7.43
633.26	5.17
633.59	10.98
633.93	10.65
634.26	25.18
634.59	7.75
634.92	3.87
635.25	-0.32
635.58	-15.82
635.91	-23.89
636.24	-27.44
636.58	-18.72
636.91	-14.85
637.24	-14.20
637.57	-13.56
637.90	-5.49
638.23	11.94
638.56	13.24
638.89	-6.78
639.22	-10.98
639.55	-18.72
639.88	-19.37
640.22	-20.66
640.55	-33.90
640.88	-40.68
641.21	-54.56
641.54	-42.29
641.87	-31.96
642.20	-32.61
642.53	-36.80
642.86	-41.32
643.19	-36.48
643.52	-30.67
643.85	-37.77
644.18	-46.17
644.51	-46.17
644.84	-27.44
645.17	-18.08
645.50	-30.02
645.83	-17.76
646.16	-2.91
646.49	-0.97
646.82	8.07
647.15	1.61
647.48	-0.97
647.81	1.29
648.14	6.46
648.47	-10.01
648.80	0.00
649.13	-4.52
649.46	-10.98
649.79	1.29
650.11	20.66
650.44	30.99
650.77	32.61
651.10	25.18
651.43	31.31
651.76	30.67
652.09	22.28
652.42	6.13
652.75	-5.81
653.08	2.58
653.41	-1.29
653.73	4.52
654.06	10.33
654.39	10.33
654.72	28.41
655.05	27.76
655.38	10.98
655.71	12.59
656.04	-2.91
656.36	-2.91
656.69	-5.49
657.02	-24.21
657.35	-42.61
657.68	-27.44
658.01	-23.89
658.33	-16.46
658.66	-9.68
658.99	-11.94
659.32	-3.23
659.65	20.34
659.97	18.40
660.30	13.24
660.63	13.24
660.96	19.37
661.29	29.38
661.61	19.37
661.94	6.46
662.27	11.94
662.60	-0.97
662.92	-8.07
663.25	-22.28
663.58	-26.80
663.91	-30.35
664.23	-22.92
664.56	-28.09
664.89	-8.72
665.22	-14.20
665.54	-3.87
665.87	-4.84
666.20	-1.94
666.53	-20.98
666.85	-13.24
667.18	-20.98
667.51	-9.36
667.83	-21.31
668.16	-23.89
668.49	-19.69
668.81	6.78
669.14	-2.58
669.47	6.46
669.79	6.78
670.12	12.27
670.45	10.65
670.77	10.33
671.10	-3.23
671.43	-8.39
671.75	-14.53
672.08	-34.22
672.41	-30.02
672.73	-17.11
673.06	-0.65
673.39	23.24
673.71	20.34
674.04	31.96
674.36	36.48
674.69	31.31
675.02	25.50
675.34	14.53
675.67	-5.81
675.99	4.84
676.32	7.43
676.64	17.43
676.97	20.34
677.30	15.50
677.62	4.20
677.95	8.39
678.27	0.00
678.60	-10.01
678.92	-13.24
679.25	-10.65
679.57	-16.79
679.90	-1.94
680.22	13.56
680.55	25.18
680.88	18.08
681.20	3.23
681.53	-5.49
681.85	6.46
682.18	-5.49
682.50	-41.00
682.83	-41.97
683.15	-34.54
683.47	-25.50
683.80	-30.99
684.12	-42.61
684.45	-33.90
684.77	-12.59
685.10	-24.21
685.42	-34.87
685.75	-16.14
686.07	-5.49
686.40	7.75
686.72	5.49
687.04	0.00
687.37	13.24
687.69	46.49
688.02	23.89
688.34	11.94
688.67	-11.62
688.99	-18.08
689.31	-14.85
689.64	-0.32
689.96	-18.72
690.28	-7.43
690.61	5.17
690.93	32.28
691.26	41.65
691.58	31.96
691.90	5.81
692.23	-6.78
692.55	-2.26
692.87	9.36
693.20	-1.61
693.52	-6.46
693.84	-10.01
694.17	-3.55
694.49	-1.94
694.81	4.20
695.14	-10.98
695.46	-10.01
695.78	3.23
696.11	7.75
696.43	1.61
696.75	3.87
697.08	-10.98
697.40	-26.15
697.72	-28.73
698.04	-34.87
698.37	-20.02
698.69	-25.83
699.01	-19.69
699.33	-16.14
699.66	-5.49
699.98	-3.23
700.30	-9.68
700.62	-9.68
700.95	2.58
701.27	6.78
701.59	24.86
701.91	21.95
702.24	14.20
702.56	18.72
702.88	5.49
703.20	17.43
703.52	0.00
703.85	-0.65
704.17	16.14
704.49	39.71
704.81	40.68
705.13	52.94
705.45	44.87
705.78	57.14
706.10	37.45
706.42	13.24
706.74	1.61
707.06	6.78
707.38	10.01
707.71	4.84
708.03	-4.52
708.35	-11.30
708.67	6.78
708.99	-9.36
709.31	-14.20
709.63	-20.98
709.95	-26.15
710.27	-21.95
710.60	-5.81
710.92	-22.28
711.24	-8.39
711.56	-18.72
711.88	-29.05
712.20	-31.31
712.52	-30.02
712.84	-32.61
713.16	-23.57
713.48	-26.47
713.80	-18.40
714.12	-20.34
714.44	-17.76
714.76	-10.98
715.08	-9.04
715.40	-7.43
715.72	-3.23
716.04	-12.91
716.36	-4.52
716.68	10.33
717.00	3.23
717.32	-4.52
717.64	9.36
717.96	3.87
718.28	18.08
718.60	22.28
718.92	15.50
719.24	17.43
719.56	27.12
719.88	10.01
720.20	13.88
720.52	16.14
720.84	8.72
721.16	20.66
721.48	29.05
721.80	17.11
722.12	20.66
722.44	19.69
722.76	15.17
723.08	8.72
723.40	-8.07
723.72	-23.89
724.03	-15.82
724.35	-6.46
724.67	0.32
724.99	-0.97
725.31	16.14
725.63	20.66
725.95	26.47
726.27	22.28
726.58	11.62
726.90	1.94
727.22	3.55
727.54	-9.36
727.86	-6.78
728.18	7.10
728.50	2.26
728.81	12.91
729.13	14.53
729.45	5.49
729.77	4.20
730.09	2.58
730.40	-34.22
730.72	-19.05
731.04	-35.83
731.36	-20.02
731.68	-8.07
731.99	-4.20
732.31	-12.91
732.63	4.20
732.95	-16.14
733.27	8.39
733.58	1.29
733.90	-4.20
734.22	-4.84
734.54	12.59
734.85	15.50
735.17	32.61
735.49	-0.32
735.80	-9.68
736.12	-19.05
736.44	-24.54
736.76	-38.74
737.07	-33.25
737.39	-46.17
737.71	-27.44
738.02	-24.21
738.34	-16.14
738.66	-11.94
738.97	-26.47
739.29	-39.06
739.61	-26.80
739.93	-26.15
740.24	-26.80
740.56	-26.47
740.87	-31.96
741.19	-18.08
741.51	-8.07
741.82	-6.13
742.14	8.07
742.46	8.72
742.77	-8.39
743.09	13.56
743.41	-6.46
743.72	0.32
744.04	-16.46
744.35	-27.76
744.67	-34.22
744.99	-10.33
745.30	-31.96
745.62	-3.87
745.93	4.84
746.25	4.84
746.56	13.56
746.88	15.82
747.20	18.40
747.51	24.21
747.83	20.66
748.14	-7.43
748.46	1.61
748.77	-10.98
749.09	-7.43
749.40	-3.55
749.72	-9.04
750.03	-8.72
750.35	6.13
750.66	5.17
750.98	17.11
751.29	25.83
751.61	12.59
751.92	29.38
752.24	27.76
752.55	18.08
752.87	26.80
753.18	-0.65
753.50	-26.15
753.81	-14.53
754.13	-32.93
754.44	-30.35
754.76	-17.11
755.07	-21.63
755.38	-13.24
755.70	-13.56
756.01	-20.66
756.33	-24.86
756.64	-34.54
756.95	-48.42
757.27	-58.43
757.58	-57.46
757.90	-35.51
758.21	-39.71
758.52	-13.24
758.84	-18.08
759.15	-10.98
759.47	7.43
759.78	15.50
760.09	20.02
760.41	31.96
760.72	38.42
761.03	55.20
761.35	43.26
761.66	9.04
761.97	8.72
762.29	-5.81
762.60	-21.31
762.91	-46.17
763.23	-45.20
763.54	-19.69
763.85	2.91
764.17	-3.87
764.48	10.65
764.79	13.24
765.10	26.47
765.42	22.28
765.73	9.36
766.04	10.65
766.36	14.53
766.67	1.61
766.98	8.72
767.29	-10.65
767.61	0.00
767.92	17.11
768.23	13.88
768.54	7.75
768.86	17.11
769.17	16.46
769.48	28.41
769.79	22.28
770.10	9.68
770.42	15.82
770.73	36.16
771.04	31.96
771.35	28.41
771.66	31.31
771.98	21.31
772.29	9.68
772.60	-7.43
772.91	-19.05
773.22	-20.34
773.53	-26.47
773.85	-18.08
774.16	-17.76
774.47	-7.10
774.78	5.49
775.09	10.01
775.40	9.68
775.71	19.69
776.02	7.10
776.34	10.98
776.65	8.39
776.96	10.98
777.27	15.50
777.58	26.80
777.89	17.76
778.20	15.17
778.51	15.50
778.82	14.85
779.13	12.59
779.44	0.32
779.75	-2.26
780.06	-0.97
780.38	-1.29
780.69	-3.87
781.00	-0.65
781.31	19.37
781.62	26.80
781.93	18.72
782.24	15.17
782.55	18.40
782.86	18.40
783.17	9.36
783.48	-19.69
783.79	-17.11
784.10	-19.37
784.41	-21.63
784.72	-29.38
785.03	-38.09
785.34	-39.39
785.65	-40.03
785.96	-51.01
786.27	-59.08
786.57	-57.79
786.88	-49.07
787.19	-41.97
787.50	-61.02
787.81	-49.39
788.12	-52.30
788.43	-30.02
788.74	-29.05
789.05	-29.05
789.36	-26.15
789.67	2.58
789.98	17.43
790.29	31.96
790.59	29.38
790.90	43.26
791.21	37.77
791.52	50.68
791.83	41.65
792.14	30.02
792.45	19.37
792.75	3.55
793.06	-10.65
793.37	2.26
793.68	-18.08
793.99	-10.33
794.30	-19.69
794.60	0.00
794.91	18.72
795.22	43.58
795.53	42.61
795.84	64.57
796.15	82.65
796.45	96.53
796.76	91.68
797.07	72.96
797.38	52.94
797.68	40.03
797.99	32.93
798.30	30.02
798.61	19.37
798.91	-7.43
799.22	0.97
799.53	14.85
799.84	14.53
800.14	6.78
800.45	-8.07
800.76	4.20
801.07	32.61
801.37	29.70
801.68	6.46
801.99	7.75
802.29	13.56
802.60	6.46
802.91	-4.20
803.22	-25.83
803.52	-25.18
803.83	-22.92
804.14	-20.02
804.44	-28.41
804.75	-26.47
805.06	-33.90
805.36	-37.13
805.67	-59.08
805.97	-63.28
806.28	-66.50
806.59	-59.40
806.89	-64.89
807.20	-71.02
807.51	-64.24
807.81	-46.81
808.12	-32.61
808.42	-23.57
808.73	-23.89
809.04	-19.37
809.34	7.75
809.65	11.30
809.95	12.27
810.26	17.76
810.56	8.39
810.87	5.17
811.18	15.82
811.48	2.58
811.79	-7.75
812.09	-4.52
812.40	-8.07
812.70	-11.62
813.01	-14.53
813.31	-30.99
813.62	-30.02
813.92	-14.20
814.23	-9.68
814.53	-17.11
814.84	6.78
815.14	-4.20
815.45	-1.94
815.75	-5.81
816.06	6.46
816.36	2.58
816.67	3.23
816.97	-0.32
817.28	8.72
817.58	28.09
817.89	31.31
818.19	12.59
818.49	11.30
818.80	19.05
819.10	3.23
819.41	22.60
819.71	21.31
820.01	9.04
820.32	-6.78
820.62	-8.39
820.93	-18.08
821.23	-6.46
821.53	-27.12
821.84	-38.42
822.14	-28.73
822.45	-17.43
822.75	-10.98
823.05	-7.10
823.36	-3.55
823.66	1.29
823.96	0.97
824.27	9.04
824.57	32.28
824.87	28.73
825.18	36.80
825.48	28.41
825.78	43.91
826.09	53.59
826.39	54.24
826.69	27.44
827.00	25.18
827.30	29.05
827.60	26.47
827.90	21.31
828.21	26.47
828.51	31.64
828.81	30.99
829.11	26.80
829.42	8.07
829.72	1.29
830.02	12.91
830.32	5.49
830.63	0.65
830.93	12.91
831.23	20.66
831.53	29.70
831.84	39.39
832.14	26.80
832.44	29.05
832.74	14.53
833.04	5.49
833.35	1.61
833.65	12.91
833.95	10.33
834.25	2.26
834.55	-8.72
834.85	-8.07
835.16	11.94
835.46	6.78
835.76	-2.26
836.06	0.32
836.36	13.24
836.66	11.62
836.96	23.24
837.26	-1.94
837.57	16.14
837.87	8.07
838.17	9.04
838.47	0.00
838.77	7.43
839.07	5.49
839.37	18.72
839.67	14.53
839.97	15.50
840.27	12.27
840.57	-2.26
840.88	-15.17
841.18	-9.68
841.48	-7.43
841.78	-9.04
842.08	7.43
842.38	12.91
842.68	27.12
842.98	36.16
843.28	29.70
843.58	20.02
843.88	20.02
844.18	6.13
844.48	-1.29
844.78	-10.98
845.08	6.13
845.38	-4.84
845.68	6.13
845.98	-3.55
846.28	-11.62
846.58	-6.46
846.88	-2.58
847.18	-7.10
847.48	2.58
847.78	7.43
848.07	9.68
848.37	7.10
848.67	6.13
848.97	10.65
849.27	2.58
849.57	7.75
849.87	5.81
850.17	15.82
850.47	14.85
850.77	8.07
851.07	-5.49
851.36	-6.46
851.66	-12.27
851.96	-33.90
852.26	-55.85
852.56	-41.32
852.86	-37.77
853.16	-20.02
853.45	-16.46
853.75	-10.01
854.05	12.59
854.35	25.83
854.65	30.67
854.95	23.89
855.24	12.59
855.54	21.95
855.84	10.33
856.14	-9.68
856.44	-2.58
856.73	3.87
857.03	21.63
857.33	44.23
857.63	30.67
857.93	42.94
858.22	50.04
858.52	41.65
858.82	23.57
859.12	24.54
859.41	18.40
859.71	25.83
860.01	24.54
860.30	38.42
860.60	44.87
860.90	50.36
861.20	43.26
861.49	30.35
861.79	35.19
862.09	41.00
862.38	31.96
862.68	17.76
862.98	24.21
863.27	11.30
863.57	27.44
863.87	8.39
864.16	-7.10
864.46	1.29
864.76	14.85
865.05	12.27
865.35	12.59
865.65	0.00
865.94	7.10
866.24	0.97
866.54	-8.39
866.83	-4.20
867.13	6.78
867.42	16.46
867.72	13.24
868.02	10.65
868.31	17.11
868.61	19.37
868.90	8.39
869.20	5.17
869.49	0.97
869.79	3.55
870.08	10.65
870.38	24.54
870.68	16.14
870.97	19.69
871.27	7.10
871.56	-3.87
871.86	8.07
872.15	0.97
872.45	0.00
872.74	5.81
873.04	7.10
873.33	13.24
873.63	24.21
873.92	-5.81
874.22	-4.84
874.51	-1.94
874.81	0.65
875.10	-1.94
875.40	-8.07
875.69	-2.58
875.98	15.17
876.28	19.37
876.57	17.43
876.87	3.55
877.16	-1.94
877.46	-3.23
877.75	-7.43
878.04	-12.59
878.34	-5.81
878.63	-7.75
878.93	4.20
879.22	0.97
879.51	-9.36
879.81	-2.26
880.10	5.49
880.40	-23.24
880.69	-33.57
880.98	-43.91
881.28	-36.80
881.57	-21.63
881.86	-24.86
882.16	-9.36
882.45	14.20
882.74	8.72
883.04	29.05
883.33	29.70
883.62	16.79
883.92	72.31
884.21	-11.30
884.50	-67.79
>>>>>End Processed Spectral Data<<<<<
