SpectraSuite Data File
++++++++++++++++++++++++++++++++++++
Date: Fri Feb 20 12:07:14 EST 2015
User: Administrator
Dark Spectrum Present: Yes
Reference Spectrum Present: No
Number of Sampled Component Spectra: 1
Spectrometers: SB2+H01071
Integration Time (usec): 5000000 (SB2+H01071)
Spectra Averaged: 1 (SB2+H01071)
Boxcar Smoothing: 3 (SB2+H01071)
Correct for Electrical Dark: No (SB2+H01071)
Strobe/Lamp Enabled: Yes (SB2+H01071)
Correct for Detector Non-linearity: No (SB2+H01071)
Correct for Stray Light: No (SB2+H01071)
Number of Pixels in Processed Spectrum: 2048
>>>>>Begin Processed Spectral Data<<<<<
191.06	22.60
191.43	22.60
191.81	22.60
192.19	-27.44
192.56	-27.44
192.94	-35.83
193.31	-60.05
193.69	-52.62
194.07	-51.33
194.44	-33.90
194.82	-25.50
195.19	-41.97
195.57	-50.36
195.95	-28.41
196.32	-29.38
196.70	-26.80
197.07	-37.77
197.45	-52.62
197.83	-34.22
198.20	-15.82
198.58	-17.43
198.95	-21.31
199.33	-17.11
199.70	-13.88
200.08	-10.01
200.46	-6.46
200.83	-10.65
201.21	1.94
201.58	11.94
201.96	26.80
202.33	44.23
202.71	51.98
203.09	42.94
203.46	33.57
203.84	21.63
204.21	17.11
204.59	6.78
204.96	-5.17
205.34	-4.20
205.71	2.91
206.09	20.34
206.46	25.18
206.84	24.86
207.21	23.24
207.59	29.38
207.96	22.92
208.34	22.92
208.71	10.98
209.09	2.26
209.46	-1.61
209.84	17.43
210.21	12.27
210.59	23.24
210.96	4.84
211.34	-8.72
211.71	-3.23
212.09	-6.78
212.46	-20.02
212.84	-14.85
213.21	-45.20
213.59	-28.09
213.96	-15.17
214.34	-25.50
214.71	-19.37
215.08	-23.89
215.46	-16.14
215.83	14.20
216.21	6.13
216.58	19.69
216.96	44.55
217.33	36.80
217.70	37.13
218.08	22.92
218.45	16.46
218.83	12.27
219.20	-3.23
219.58	-24.86
219.95	-22.92
220.32	-12.91
220.70	-10.33
221.07	-19.05
221.45	-17.76
221.82	-10.33
222.19	-1.94
222.57	-13.88
222.94	-17.76
223.32	-29.38
223.69	-20.98
224.06	-22.60
224.44	-21.63
224.81	-34.87
225.18	-28.73
225.56	-34.54
225.93	-10.33
226.31	-7.75
226.68	8.39
227.05	5.49
227.43	14.20
227.80	30.02
228.17	32.61
228.55	20.02
228.92	17.43
229.29	-3.23
229.67	-2.58
230.04	-9.36
230.41	-17.11
230.79	-25.83
231.16	-27.76
231.53	-27.76
231.91	-10.33
232.28	5.49
232.65	16.79
233.03	32.61
233.40	56.17
233.77	55.20
234.15	48.75
234.52	45.20
234.89	46.17
235.26	39.39
235.64	20.02
236.01	-7.10
236.38	4.84
236.76	11.94
237.13	-6.78
237.50	-12.59
237.87	-22.60
238.25	-20.66
238.62	-4.52
238.99	-11.62
239.36	-12.91
239.74	0.32
240.11	-15.17
240.48	-5.49
240.85	2.91
241.23	3.23
241.60	-1.61
241.97	0.00
242.34	-6.78
242.72	-5.17
243.09	-2.58
243.46	-1.29
243.83	-20.34
244.20	-0.32
244.58	-4.52
244.95	-1.29
245.32	-6.78
245.69	-11.94
246.07	-22.60
246.44	-15.50
246.81	-23.24
247.18	-22.60
247.55	-24.54
247.92	-8.07
248.30	-1.94
248.67	11.94
249.04	11.94
249.41	15.50
249.78	8.72
250.16	23.57
250.53	24.54
250.90	31.64
251.27	17.43
251.64	16.46
252.01	6.13
252.39	15.17
252.76	11.62
253.13	1.61
253.50	-21.31
253.87	-19.05
254.24	-6.13
254.61	-12.91
254.98	-27.12
255.36	-23.57
255.73	-13.88
256.10	-0.65
256.47	14.53
256.84	18.72
257.21	32.28
257.58	31.64
257.95	17.11
258.33	7.75
258.70	11.30
259.07	5.49
259.44	-3.23
259.81	-2.58
260.18	4.52
260.55	15.82
260.92	16.46
261.29	15.17
261.66	4.52
262.03	-3.55
262.40	-23.89
262.77	-15.50
263.15	-24.86
263.52	-25.50
263.89	-37.77
264.26	-34.87
264.63	-26.15
265.00	-20.02
265.37	-9.68
265.74	2.91
266.11	4.84
266.48	31.31
266.85	41.32
267.22	42.61
267.59	39.71
267.96	34.87
268.33	23.57
268.70	19.37
269.07	-0.32
269.44	-5.17
269.81	-5.81
270.18	6.78
270.55	-20.34
270.92	-15.17
271.29	-4.52
271.66	11.30
272.03	24.54
272.40	19.05
272.77	2.91
273.14	28.41
273.51	28.41
273.88	9.04
274.25	-2.26
274.62	-31.64
274.99	-44.23
275.36	-21.63
275.73	-30.02
276.10	-25.18
276.47	-8.72
276.84	-6.13
277.21	5.49
277.58	12.27
277.94	7.43
278.31	8.07
278.68	1.94
279.05	-6.78
279.42	-19.05
279.79	-17.76
280.16	-14.53
280.53	-3.87
280.90	-14.20
281.27	-15.82
281.64	3.23
282.01	21.31
282.37	24.54
282.74	33.57
283.11	16.79
283.48	29.38
283.85	23.89
284.22	13.88
284.59	20.66
284.96	16.14
285.33	26.80
285.69	40.68
286.06	44.23
286.43	47.78
286.80	60.05
287.17	51.33
287.54	53.91
287.91	36.80
288.27	26.80
288.64	8.07
289.01	23.24
289.38	21.95
289.75	22.92
290.12	30.02
290.48	30.35
290.85	26.80
291.22	19.69
291.59	1.29
291.96	-19.37
292.33	-38.09
292.69	-52.30
293.06	-39.71
293.43	-46.49
293.80	-23.89
294.17	-16.79
294.53	-4.20
294.90	20.02
295.27	41.32
295.64	47.13
296.01	59.40
296.37	55.85
296.74	60.37
297.11	43.26
297.48	29.05
297.84	16.46
298.21	6.78
298.58	-4.84
298.95	-6.13
299.31	-18.72
299.68	-1.94
300.05	-11.62
300.42	-10.33
300.78	-22.60
301.15	-9.36
301.52	-4.52
301.89	8.07
302.25	-1.29
302.62	20.02
302.99	19.05
303.35	14.20
303.72	15.17
304.09	-4.20
304.46	-10.98
304.82	-6.78
305.19	-5.17
305.56	-17.76
305.92	-9.04
306.29	-7.75
306.66	11.94
307.02	-5.81
307.39	-11.30
307.76	-7.75
308.12	2.91
308.49	0.32
308.86	-11.94
309.23	-2.58
309.59	17.43
309.96	18.40
310.32	24.21
310.69	25.83
311.06	32.61
311.42	36.80
311.79	19.05
312.16	26.80
312.52	23.57
312.89	0.97
313.26	-3.87
313.62	-9.04
313.99	-5.17
314.35	-10.65
314.72	-23.24
315.09	-14.85
315.45	-0.32
315.82	0.97
316.19	10.01
316.55	-0.32
316.92	21.63
317.28	33.90
317.65	35.51
318.02	26.80
318.38	19.05
318.75	17.11
319.11	31.31
319.48	26.15
319.84	40.03
320.21	27.76
320.58	33.25
320.94	60.05
321.31	48.42
321.67	42.29
322.04	38.09
322.40	15.82
322.77	30.02
323.13	19.05
323.50	-7.43
323.86	-13.24
324.23	-2.91
324.60	0.32
324.96	-0.65
325.33	-29.70
325.69	-33.90
326.06	-25.83
326.42	-29.38
326.79	-51.65
327.15	-54.88
327.52	-66.50
327.88	-43.91
328.25	-31.64
328.61	-13.88
328.98	4.52
329.34	-1.29
329.71	-14.85
330.07	4.20
330.44	-9.04
330.80	-7.10
331.16	-36.16
331.53	-43.91
331.89	-22.60
332.26	-0.65
332.62	3.87
332.99	24.86
333.35	34.54
333.72	50.04
334.08	46.17
334.45	34.22
334.81	33.25
335.17	19.69
335.54	16.14
335.90	-2.58
336.27	-9.04
336.63	-2.91
337.00	7.10
337.36	-0.97
337.72	-4.20
338.09	0.97
338.45	9.68
338.82	16.46
339.18	18.40
339.54	22.92
339.91	32.28
340.27	45.84
340.63	33.25
341.00	26.47
341.36	31.96
341.73	14.20
342.09	6.78
342.45	3.55
342.82	-2.58
343.18	1.61
343.54	15.17
343.91	3.23
344.27	17.76
344.63	17.43
345.00	12.59
345.36	12.59
345.72	7.10
346.09	-9.04
346.45	-7.10
346.81	-12.91
347.18	-0.32
347.54	4.84
347.90	5.81
348.27	8.72
348.63	11.62
348.99	-2.91
349.36	-3.23
349.72	-10.33
350.08	-25.83
350.45	-27.76
350.81	-18.72
351.17	-0.97
351.53	8.07
351.90	28.09
352.26	14.53
352.62	28.09
352.98	21.31
353.35	8.72
353.71	-13.88
354.07	-1.61
354.44	-19.37
354.80	-9.68
355.16	-17.11
355.52	-15.50
355.88	-14.53
356.25	-18.40
356.61	-35.19
356.97	-53.91
357.33	-45.52
357.70	-27.44
358.06	-18.40
358.42	-27.76
358.78	-41.32
359.15	-26.80
359.51	-8.07
359.87	-20.98
360.23	-31.96
360.59	-35.19
360.95	-17.43
361.32	15.50
361.68	8.07
362.04	1.29
362.40	10.33
362.76	-1.94
363.13	-14.53
363.49	-19.05
363.85	-29.38
364.21	-30.99
364.57	-22.92
364.93	-16.79
365.30	-10.01
365.66	-5.17
366.02	-14.85
366.38	-10.65
366.74	-0.32
367.10	14.20
367.46	9.36
367.83	11.30
368.19	17.76
368.55	21.63
368.91	12.91
369.27	9.68
369.63	-0.65
369.99	-11.94
370.35	-11.94
370.71	-8.07
371.08	3.87
371.44	12.59
371.80	14.20
372.16	27.12
372.52	29.05
372.88	42.94
373.24	36.80
373.60	50.36
373.96	45.20
374.32	39.06
374.68	32.93
375.04	36.80
375.40	33.57
375.76	42.61
376.13	27.76
376.49	34.87
376.85	38.09
377.21	47.78
377.57	42.29
377.93	21.31
378.29	17.11
378.65	20.98
379.01	17.43
379.37	10.98
379.73	-6.78
380.09	3.87
380.45	15.17
380.81	5.17
381.17	-7.75
381.53	-8.07
381.89	-2.58
382.25	-4.20
382.61	-16.79
382.97	-26.47
383.33	-29.05
383.69	-19.37
384.05	-22.28
384.41	-13.24
384.77	-0.32
385.13	21.31
385.49	13.24
385.85	16.79
386.20	18.40
386.56	4.84
386.92	-22.28
387.28	-30.67
387.64	-46.17
388.00	-42.61
388.36	-44.23
388.72	-34.22
389.08	-29.70
389.44	-8.39
389.80	-14.20
390.16	-11.30
390.52	-7.43
390.88	3.55
391.23	-7.75
391.59	3.87
391.95	1.94
392.31	1.61
392.67	-27.76
393.03	-9.68
393.39	-13.56
393.75	-11.94
394.11	-23.24
394.46	-29.05
394.82	-13.56
395.18	16.46
395.54	15.17
395.90	30.35
396.26	17.11
396.62	14.53
396.97	26.80
397.33	22.92
397.69	13.24
398.05	-3.23
398.41	-12.91
398.77	-17.76
399.12	6.13
399.48	-2.91
399.84	-8.07
400.20	-9.68
400.56	0.32
400.91	-1.29
401.27	1.94
401.63	-4.20
401.99	2.26
402.35	2.58
402.70	0.32
403.06	-0.32
403.42	-10.65
403.78	3.55
404.14	5.17
404.49	1.29
404.85	5.49
405.21	13.24
405.57	14.53
405.92	25.18
406.28	28.41
406.64	18.08
407.00	15.82
407.35	10.33
407.71	25.50
408.07	18.08
408.43	9.04
408.78	-7.43
409.14	-3.87
409.50	11.94
409.85	10.65
410.21	3.55
410.57	-0.32
410.93	10.33
411.28	20.66
411.64	23.24
412.00	4.84
412.35	10.98
412.71	12.91
413.07	27.12
413.42	28.09
413.78	34.54
414.14	23.24
414.49	26.15
414.85	40.35
415.21	24.86
415.56	20.98
415.92	30.99
416.28	36.16
416.63	47.78
416.99	56.82
417.35	34.54
417.70	33.90
418.06	30.35
418.42	32.61
418.77	26.80
419.13	32.61
419.48	21.95
419.84	23.24
420.20	32.28
420.55	33.90
420.91	22.92
421.27	25.83
421.62	20.66
421.98	30.99
422.33	27.44
422.69	30.35
423.05	32.28
423.40	23.89
423.76	15.50
424.11	3.87
424.47	-4.52
424.82	17.43
425.18	0.97
425.54	10.65
425.89	-5.49
426.25	-14.53
426.60	-13.88
426.96	-16.79
427.31	-35.83
427.67	-39.06
428.02	-44.87
428.38	-12.59
428.73	3.23
429.09	8.07
429.44	2.91
429.80	-3.87
430.15	15.17
430.51	14.53
430.86	-0.97
431.22	-3.55
431.57	0.32
431.93	11.94
432.28	28.09
432.64	11.94
432.99	6.78
433.35	12.91
433.70	0.65
434.06	11.94
434.41	7.43
434.77	14.20
435.12	41.00
435.48	30.67
435.83	35.51
436.19	60.69
436.54	53.59
436.89	62.95
437.25	46.49
437.60	24.54
437.96	38.09
438.31	44.87
438.67	17.11
439.02	0.97
439.37	-4.84
439.73	-5.81
440.08	11.30
440.44	0.97
440.79	-12.91
441.15	-3.23
441.50	15.50
441.85	4.84
442.21	18.72
442.56	7.43
442.91	7.43
443.27	0.00
443.62	-7.43
443.98	-7.43
444.33	-4.84
444.68	-13.24
445.04	-15.50
445.39	8.72
445.74	9.68
446.10	15.50
446.45	-0.65
446.80	28.73
447.16	31.31
447.51	31.64
447.86	19.05
448.22	27.44
448.57	26.47
448.92	37.77
449.28	20.34
449.63	3.87
449.98	3.87
450.34	5.81
450.69	3.87
451.04	-0.32
451.40	3.23
451.75	-4.52
452.10	22.60
452.45	28.09
452.81	36.80
453.16	34.54
453.51	36.80
453.86	27.12
454.22	30.35
454.57	-4.84
454.92	-6.78
455.27	-19.37
455.63	-12.27
455.98	-5.49
456.33	-12.91
456.68	-25.83
457.04	-1.61
457.39	1.29
457.74	-0.32
458.09	-20.66
458.45	-18.08
458.80	-12.59
459.15	9.68
459.50	-4.52
459.85	-15.50
460.21	-4.20
460.56	4.52
460.91	6.13
461.26	12.27
461.61	-12.91
461.97	-1.61
462.32	5.49
462.67	-6.78
463.02	9.68
463.37	12.27
463.72	23.24
464.08	30.67
464.43	23.57
464.78	13.56
465.13	24.54
465.48	10.98
465.83	14.85
466.18	7.75
466.54	17.76
466.89	21.95
467.24	39.71
467.59	23.57
467.94	30.02
468.29	26.47
468.64	14.53
468.99	6.78
469.34	4.52
469.70	-5.17
470.05	-0.97
470.40	-10.33
470.75	-30.02
471.10	-30.67
471.45	-41.32
471.80	-49.39
472.15	-52.62
472.50	-44.87
472.85	-30.02
473.20	-34.87
473.55	-17.11
473.90	-17.43
474.25	-7.43
474.61	0.65
474.96	-4.52
475.31	-10.98
475.66	7.43
476.01	1.61
476.36	21.63
476.71	35.19
477.06	37.13
477.41	55.53
477.76	56.82
478.11	59.08
478.46	61.98
478.81	61.02
479.16	50.04
479.51	41.97
479.86	20.98
480.21	18.40
480.56	10.33
480.91	0.00
481.26	12.91
481.61	17.11
481.96	31.64
482.31	27.12
482.66	18.08
483.00	22.28
483.35	20.66
483.70	-7.75
484.05	-16.46
484.40	-21.31
484.75	-13.24
485.10	5.17
485.45	-8.72
485.80	-8.72
486.15	-5.49
486.50	-7.43
486.85	-20.34
487.20	-23.57
487.55	-35.51
487.89	-43.58
488.24	-36.80
488.59	-13.88
488.94	-11.94
489.29	-6.78
489.64	-9.36
489.99	-10.01
490.34	0.32
490.68	-6.13
491.03	-27.76
491.38	-19.69
491.73	-16.46
492.08	-10.98
492.43	-5.17
492.78	6.13
493.12	1.61
493.47	6.78
493.82	4.52
494.17	7.75
494.52	6.46
494.87	-10.33
495.21	-4.52
495.56	18.08
495.91	25.18
496.26	29.70
496.61	35.51
496.95	32.28
497.30	39.06
497.65	25.83
498.00	5.49
498.35	6.46
498.69	-9.04
499.04	-24.86
499.39	-22.28
499.74	-14.53
500.08	-23.57
500.43	-12.91
500.78	-27.44
501.13	-30.67
501.48	-25.50
501.82	-27.76
502.17	-44.23
502.52	-35.51
502.86	-62.63
503.21	-60.37
503.56	-48.10
503.91	-46.49
504.25	-48.42
504.60	-41.65
504.95	-48.10
505.30	-22.60
505.64	-9.36
505.99	-11.94
506.34	-17.43
506.68	-7.10
507.03	-8.72
507.38	14.85
507.72	21.31
508.07	2.91
508.42	3.23
508.76	-3.55
509.11	-4.84
509.46	15.17
509.80	6.78
510.15	3.87
510.50	26.15
510.84	27.12
511.19	40.68
511.54	49.07
511.88	32.93
512.23	42.94
512.57	42.94
512.92	34.87
513.27	38.42
513.61	45.52
513.96	28.09
514.31	38.74
514.65	17.76
515.00	-9.04
515.34	6.46
515.69	-0.65
516.03	-12.59
516.38	-10.98
516.73	-21.63
517.07	-30.35
517.42	-7.10
517.76	-21.31
518.11	-16.79
518.45	-19.69
518.80	-21.95
519.15	-12.59
519.49	6.46
519.84	8.07
520.18	-7.43
520.53	-17.76
520.87	-18.72
521.22	-20.66
521.56	-22.60
521.91	-23.24
522.25	-16.46
522.60	10.01
522.94	33.25
523.29	31.64
523.63	39.39
523.98	37.77
524.32	34.87
524.67	4.52
525.01	-21.95
525.36	-32.93
525.70	-24.54
526.05	-16.46
526.39	-21.63
526.74	-26.47
527.08	-10.65
527.43	-11.94
527.77	-13.24
528.12	-8.39
528.46	-8.07
528.80	-1.94
529.15	-3.87
529.49	1.61
529.84	19.05
530.18	16.14
530.53	-2.91
530.87	-7.75
531.21	-6.13
531.56	10.98
531.90	4.52
532.25	3.87
532.59	23.24
532.93	31.64
533.28	24.54
533.62	27.12
533.97	11.94
534.31	6.13
534.65	8.07
535.00	7.75
535.34	11.94
535.68	17.11
536.03	6.78
536.37	21.63
536.71	37.45
537.06	25.83
537.40	9.04
537.74	-0.00
538.09	2.58
538.43	12.91
538.77	3.55
539.12	-6.13
539.46	-1.61
539.80	-0.97
540.15	5.49
540.49	6.46
540.83	6.13
541.18	51.33
541.52	63.92
541.86	75.54
542.20	76.83
542.55	76.51
542.89	88.46
543.23	88.78
543.58	36.16
543.92	19.05
544.26	8.39
544.60	8.72
544.95	15.17
545.29	-5.49
545.63	-10.33
545.97	-13.56
546.32	-8.72
546.66	-18.40
547.00	-3.87
547.34	-13.88
547.68	-1.94
548.03	-7.75
548.37	-9.36
548.71	0.32
549.05	9.36
549.39	-8.72
549.74	-5.49
550.08	-14.20
550.42	-11.94
550.76	-10.98
551.10	-29.38
551.45	-32.93
551.79	-21.95
552.13	-28.41
552.47	-37.45
552.81	-44.55
553.15	-32.28
553.50	-34.87
553.84	-22.60
554.18	-31.31
554.52	2.26
554.86	34.22
555.20	56.82
555.54	58.43
555.88	75.87
556.23	61.34
556.57	69.41
556.91	33.57
557.25	24.21
557.59	1.61
557.93	5.81
558.27	13.24
558.61	20.66
558.95	12.59
559.29	25.50
559.64	4.52
559.98	-19.69
560.32	-22.28
560.66	-37.77
561.00	-23.57
561.34	-42.61
561.68	-46.17
562.02	-38.42
562.36	-3.55
562.70	-13.56
563.04	-4.84
563.38	-21.31
563.72	-10.01
564.06	-7.75
564.40	-5.49
564.74	-3.87
565.08	-0.65
565.42	-1.29
565.76	7.43
566.10	20.02
566.44	15.17
566.78	20.66
567.12	31.64
567.46	33.25
567.80	34.22
568.14	23.89
568.48	34.87
568.82	45.84
569.16	24.54
569.50	17.11
569.84	10.33
570.18	13.88
570.52	13.56
570.86	1.61
571.20	-10.33
571.54	4.52
571.88	5.49
572.22	0.32
572.55	-4.20
572.89	1.29
573.23	18.08
573.57	12.91
573.91	3.55
574.25	6.46
574.59	11.62
574.93	5.17
575.27	0.32
575.61	-27.12
575.94	-22.60
576.28	-10.33
576.62	-23.57
576.96	-18.72
577.30	-14.53
577.64	0.32
577.98	8.39
578.32	32.28
578.65	30.35
578.99	40.68
579.33	45.84
579.67	51.01
580.01	34.87
580.35	35.19
580.68	10.65
581.02	12.59
581.36	9.36
581.70	-4.52
582.04	-10.33
582.37	-4.84
582.71	-1.29
583.05	-0.32
583.39	-8.72
583.73	-18.08
584.06	-17.11
584.40	-15.82
584.74	-14.20
585.08	-25.18
585.41	-13.56
585.75	-1.94
586.09	3.55
586.43	4.52
586.76	-5.17
587.10	-5.17
587.44	2.91
587.78	-13.88
588.11	-28.73
588.45	-39.06
588.79	-48.75
589.13	-27.12
589.46	-39.06
589.80	-39.71
590.14	-18.72
590.47	-19.05
590.81	-5.49
591.15	27.44
591.48	4.52
591.82	23.24
592.16	14.53
592.50	5.17
592.83	14.85
593.17	8.72
593.51	-12.91
593.84	2.26
594.18	-7.10
594.51	22.60
594.85	34.54
595.19	31.31
595.52	44.23
595.86	50.36
596.20	56.50
596.53	60.37
596.87	43.91
597.21	29.38
597.54	39.39
597.88	22.92
598.21	24.54
598.55	14.85
598.89	14.53
599.22	2.26
599.56	5.17
599.89	0.00
600.23	8.72
600.57	3.87
600.90	-5.49
601.24	-11.94
601.57	-9.36
601.91	-17.43
602.24	-27.12
602.58	-33.57
602.91	-44.23
603.25	-37.13
603.58	-38.74
603.92	-38.09
604.26	-35.51
604.59	-39.71
604.93	-42.61
605.26	-33.57
605.60	-9.04
605.93	-3.55
606.27	-16.46
606.60	0.00
606.94	11.30
607.27	21.95
607.61	29.70
607.94	13.24
608.28	8.72
608.61	35.51
608.95	34.87
609.28	36.48
609.61	22.28
609.95	28.73
610.28	31.64
610.62	24.54
610.95	2.58
611.29	-11.94
611.62	-26.80
611.96	-9.36
612.29	-15.17
612.62	-15.50
612.96	-2.91
613.29	10.33
613.63	12.59
613.96	30.99
614.29	29.38
614.63	20.02
614.96	-1.94
615.30	-0.65
615.63	0.97
615.96	-10.98
616.30	-20.34
616.63	-36.48
616.97	-17.11
617.30	3.23
617.63	-5.49
617.97	-4.84
618.30	7.75
618.63	-0.97
618.97	9.36
619.30	-15.50
619.63	-30.67
619.97	-21.31
620.30	-21.31
620.63	-30.02
620.97	-9.36
621.30	-6.13
621.63	-6.78
621.97	12.91
622.30	17.11
622.63	6.78
622.96	24.21
623.30	7.10
623.63	12.59
623.96	28.41
624.30	14.85
624.63	5.17
624.96	6.78
625.29	-15.82
625.63	-1.94
625.96	-4.20
626.29	-0.32
626.62	-4.52
626.96	-3.87
627.29	-11.62
627.62	-5.81
627.95	-18.08
628.28	-6.78
628.62	-9.68
628.95	-17.43
629.28	-29.05
629.61	-4.52
629.95	11.94
630.28	14.85
630.61	0.32
630.94	-14.85
631.27	-9.36
631.60	-4.52
631.94	-5.49
632.27	-6.46
632.60	10.33
632.93	8.07
633.26	11.62
633.59	26.47
633.93	33.25
634.26	13.88
634.59	12.27
634.92	-0.97
635.25	6.13
635.58	2.58
635.91	-11.62
636.24	-10.98
636.58	5.49
636.91	1.94
637.24	-1.94
637.57	-10.33
637.90	-11.30
638.23	0.97
638.56	-1.61
638.89	-5.49
639.22	-9.68
639.55	-12.59
639.88	-13.56
640.22	-1.29
640.55	-8.39
640.88	2.58
641.21	-10.65
641.54	-8.39
641.87	10.65
642.20	2.58
642.53	4.20
642.86	3.23
643.19	1.29
643.52	0.32
643.85	-3.55
644.18	-5.17
644.51	-10.65
644.84	-22.28
645.17	-34.87
645.50	-51.65
645.83	-40.03
646.16	-19.05
646.49	-33.90
646.82	-6.13
647.15	4.84
647.48	15.82
647.81	16.79
648.14	20.34
648.47	6.46
648.80	10.01
649.13	-1.94
649.46	-11.30
649.79	1.29
650.11	10.33
650.44	3.87
650.77	-11.62
651.10	-9.68
651.43	-9.68
651.76	-13.56
652.09	-25.83
652.42	-21.31
652.75	-15.17
653.08	-2.91
653.41	-15.82
653.73	-16.79
654.06	-9.04
654.39	-20.02
654.72	-16.79
655.05	-31.96
655.38	-31.31
655.71	-17.43
656.04	-13.24
656.36	-12.59
656.69	1.94
657.02	-10.98
657.35	-18.72
657.68	-21.95
658.01	-24.86
658.33	-27.76
658.66	-30.35
658.99	-37.45
659.32	-40.03
659.65	-24.54
659.97	-26.15
660.30	-26.80
660.63	-29.38
660.96	-12.91
661.29	6.13
661.61	15.82
661.94	4.20
662.27	9.68
662.60	2.58
662.92	-11.94
663.25	-25.18
663.58	-34.87
663.91	-35.51
664.23	-24.21
664.56	-16.14
664.89	-2.91
665.22	7.43
665.54	22.28
665.87	18.08
666.20	13.56
666.53	3.87
666.85	-10.65
667.18	-10.98
667.51	-11.30
667.83	-32.93
668.16	-36.80
668.49	-45.84
668.81	-36.48
669.14	-35.51
669.47	-30.67
669.79	-21.95
670.12	-9.04
670.45	-16.79
670.77	-11.94
671.10	-10.98
671.43	1.29
671.75	-6.13
672.08	-8.39
672.41	-27.44
672.73	-11.94
673.06	-3.55
673.39	0.97
673.71	-0.97
674.04	2.91
674.36	1.94
674.69	25.83
675.02	10.65
675.34	5.81
675.67	-6.13
675.99	-5.17
676.32	-6.46
676.64	-7.75
676.97	-22.92
677.30	-6.78
677.62	-7.10
677.95	4.20
678.27	-10.33
678.60	-15.50
678.92	1.61
679.25	5.49
679.57	-2.26
679.90	-0.00
680.22	1.29
680.55	16.46
680.88	9.36
681.20	-25.83
681.53	-32.93
681.85	-25.50
682.18	-28.41
682.50	-34.54
682.83	-54.56
683.15	-44.87
683.47	-32.93
683.80	-38.42
684.12	-37.45
684.45	-37.77
684.77	-36.80
685.10	-36.80
685.42	-43.26
685.75	-32.61
686.07	-24.54
686.40	-34.87
686.72	-32.93
687.04	-31.96
687.37	-17.43
687.69	0.32
688.02	-10.01
688.34	-1.61
688.67	2.91
688.99	19.37
689.31	25.50
689.64	31.96
689.96	30.02
690.28	49.07
690.61	49.39
690.93	64.89
691.26	51.01
691.58	39.06
691.90	26.15
692.23	9.68
692.55	-0.65
692.87	8.72
693.20	-3.87
693.52	-5.81
693.84	-9.04
694.17	2.26
694.49	-1.61
694.81	-9.68
695.14	-26.47
695.46	-35.51
695.78	-18.72
696.11	-10.98
696.43	-13.24
696.75	-7.10
697.08	-10.65
697.40	-5.49
697.72	3.23
698.04	-10.65
698.37	-16.14
698.69	-22.60
699.01	-24.86
699.33	0.00
699.66	2.91
699.98	11.62
700.30	16.14
700.62	22.60
700.95	15.50
701.27	25.18
701.59	26.15
701.91	16.79
702.24	3.55
702.56	12.27
702.88	17.76
703.20	38.74
703.52	34.22
703.85	12.27
704.17	36.16
704.49	41.65
704.81	23.24
705.13	23.24
705.45	20.02
705.78	15.17
706.10	19.37
706.42	-20.02
706.74	-11.30
707.06	-12.91
707.38	-10.65
707.71	-18.08
708.03	-13.24
708.35	-11.62
708.67	4.20
708.99	-16.79
709.31	-13.24
709.63	-25.50
709.95	-30.99
710.27	-36.16
710.60	-30.35
710.92	-33.25
711.24	-21.95
711.56	-33.57
711.88	-30.35
712.20	-38.09
712.52	-35.19
712.84	-44.23
713.16	-47.46
713.48	-45.20
713.80	-40.68
714.12	-41.65
714.44	-27.12
714.76	-24.54
715.08	-23.24
715.40	-9.04
715.72	-17.11
716.04	-15.17
716.36	-8.39
716.68	2.26
717.00	0.97
717.32	-0.32
717.64	11.62
717.96	12.91
718.28	32.61
718.60	35.83
718.92	26.47
719.24	21.31
719.56	22.60
719.88	3.87
720.20	4.84
720.52	-1.29
720.84	-24.86
721.16	-14.20
721.48	3.55
721.80	12.91
722.12	11.94
722.44	12.91
722.76	22.28
723.08	36.48
723.40	22.60
723.72	-6.46
724.03	-16.79
724.35	-4.52
724.67	10.01
724.99	2.91
725.31	1.61
725.63	4.84
725.95	10.01
726.27	4.20
726.58	-10.65
726.90	-26.80
727.22	-27.44
727.54	-26.47
727.86	-26.47
728.18	-3.87
728.50	6.78
728.81	30.99
729.13	38.09
729.45	18.08
729.77	26.47
730.09	26.80
730.40	3.23
730.72	0.00
731.04	-21.95
731.36	-20.66
731.68	-9.36
731.99	-19.05
732.31	-30.67
732.63	-36.48
732.95	-39.71
733.27	-38.74
733.58	-34.22
733.90	-35.51
734.22	-30.99
734.54	-10.33
734.85	6.13
735.17	14.53
735.49	15.82
735.80	9.68
736.12	3.55
736.44	2.91
736.76	-20.98
737.07	-22.60
737.39	-14.53
737.71	-15.82
738.02	-20.34
738.34	-13.24
738.66	-14.20
738.97	-12.59
739.29	-4.52
739.61	-19.69
739.93	-17.43
740.24	-18.08
740.56	-24.54
740.87	-23.57
741.19	-20.34
741.51	-26.80
741.82	-19.37
742.14	-7.75
742.46	-5.49
742.77	-4.84
743.09	15.17
743.41	7.43
743.72	-4.52
744.04	-12.59
744.35	-17.43
744.67	-20.02
744.99	-13.24
745.30	-53.91
745.62	-27.76
745.93	-9.36
746.25	-19.05
746.56	-11.30
746.88	-14.85
747.20	-6.13
747.51	16.79
747.83	5.17
748.14	-3.23
748.46	18.72
748.77	6.13
749.09	11.62
749.40	21.95
749.72	19.69
750.03	26.15
750.35	24.54
750.66	20.02
750.98	24.86
751.29	29.70
751.61	18.72
751.92	11.94
752.24	-13.88
752.55	-15.17
752.87	-25.18
753.18	-40.68
753.50	-53.59
753.81	-57.79
754.13	-59.72
754.44	-38.74
754.76	-37.77
755.07	-19.37
755.38	-9.36
755.70	-11.30
756.01	-16.14
756.33	4.84
756.64	-5.81
756.95	-3.87
757.27	-23.24
757.58	-22.92
757.90	-10.01
758.21	-1.29
758.52	-7.10
758.84	-10.01
759.15	-0.65
759.47	24.54
759.78	27.76
760.09	33.90
760.41	40.68
760.72	56.50
761.03	67.79
761.35	48.42
761.66	23.57
761.97	18.08
762.29	-1.29
762.60	-19.37
762.91	-47.46
763.23	-39.06
763.54	-20.02
763.85	11.62
764.17	12.59
764.48	34.54
764.79	35.51
765.10	48.42
765.42	55.20
765.73	56.50
766.04	35.83
766.36	35.51
766.67	20.34
766.98	25.50
767.29	9.36
767.61	-6.46
767.92	-2.91
768.23	-10.33
768.54	-13.56
768.86	-15.50
769.17	-13.56
769.48	-1.61
769.79	8.39
770.10	0.32
770.42	4.52
770.73	13.24
771.04	23.89
771.35	20.34
771.66	8.72
771.98	3.55
772.29	-2.26
772.60	-9.04
772.91	-16.14
773.22	-20.66
773.53	-13.56
773.85	4.52
774.16	-1.94
774.47	8.07
774.78	1.29
775.09	17.76
775.40	4.20
775.71	8.72
776.02	9.04
776.34	26.15
776.65	33.25
776.96	63.60
777.27	61.98
777.58	81.03
777.89	70.70
778.20	42.61
778.51	20.02
778.82	3.23
779.13	-12.91
779.44	-17.43
779.75	-23.24
780.06	-27.12
780.38	-18.72
780.69	-10.65
781.00	-14.85
781.31	-13.88
781.62	-11.62
781.93	-18.08
782.24	-16.46
782.55	-1.61
782.86	2.91
783.17	7.10
783.48	12.91
783.79	3.23
784.10	3.23
784.41	-1.94
784.72	-3.87
785.03	-10.33
785.34	-11.94
785.65	-26.47
785.96	-14.85
786.27	-9.68
786.57	-16.79
786.88	-14.85
787.19	-8.39
787.50	-14.20
787.81	-12.59
788.12	-30.02
788.43	-24.86
788.74	-6.46
789.05	-17.76
789.36	-5.81
789.67	10.33
789.98	32.93
790.29	35.19
790.59	35.19
790.90	34.87
791.21	33.57
791.52	27.44
791.83	24.54
792.14	16.14
792.45	21.63
792.75	28.73
793.06	17.43
793.37	24.54
793.68	14.85
793.99	5.49
794.30	-5.17
794.60	6.78
794.91	-2.91
795.22	7.10
795.53	3.87
795.84	2.58
796.15	14.53
796.45	12.27
796.76	30.67
797.07	20.34
797.38	5.81
797.68	2.58
797.99	-3.55
798.30	3.87
798.61	8.72
798.91	-25.83
799.22	-7.10
799.53	10.33
799.84	16.14
800.14	18.08
800.45	15.82
800.76	24.21
801.07	35.83
801.37	18.40
801.68	-0.65
801.99	-12.27
802.29	7.43
802.60	-15.17
802.91	-24.21
803.22	-24.86
803.52	-12.59
803.83	9.04
804.14	15.17
804.44	-3.55
804.75	5.17
805.06	-0.97
805.36	-12.27
805.67	-30.02
805.97	-38.09
806.28	-20.66
806.59	2.26
806.89	17.76
807.20	26.15
807.51	52.62
807.81	75.22
808.12	67.47
808.42	48.10
808.73	25.50
809.04	19.37
809.34	35.51
809.65	15.17
809.95	-0.32
810.26	-0.97
810.56	-4.20
810.87	1.61
811.18	3.55
811.48	-13.88
811.79	-28.73
812.09	-24.86
812.40	-9.68
812.70	-8.39
813.01	-10.65
813.31	-18.08
813.62	-18.08
813.92	7.43
814.23	10.65
814.53	-3.87
814.84	17.76
815.14	6.13
815.45	-2.91
815.75	-8.39
816.06	-6.13
816.36	-3.23
816.67	0.65
816.97	3.87
817.28	22.60
817.58	41.32
817.89	40.68
818.19	12.91
818.49	10.01
818.80	23.24
819.10	8.07
819.41	-4.52
819.71	-10.33
820.01	10.33
820.32	13.24
820.62	-0.32
820.93	-0.65
821.23	10.33
821.53	19.69
821.84	17.11
822.14	2.91
822.45	20.02
822.75	35.83
823.05	26.80
823.36	21.95
823.66	10.65
823.96	5.49
824.27	7.75
824.57	3.87
824.87	-0.32
825.18	-3.55
825.48	-1.61
825.78	20.02
826.09	19.05
826.39	19.69
826.69	10.33
827.00	9.68
827.30	31.64
827.60	21.31
827.90	13.88
828.21	16.14
828.51	19.69
828.81	14.20
829.11	22.28
829.42	-5.49
829.72	5.81
830.02	1.61
830.32	0.97
830.63	1.94
830.93	15.82
831.23	-0.32
831.53	15.50
831.84	5.17
832.14	7.43
832.44	27.12
832.74	10.33
833.04	6.13
833.35	5.17
833.65	5.17
833.95	11.94
834.25	8.07
834.55	-1.61
834.85	10.98
835.16	23.24
835.46	24.54
835.76	16.46
836.06	8.07
836.36	8.39
836.66	2.26
836.96	-18.40
837.26	-41.32
837.57	-30.35
837.87	-32.93
838.17	-35.19
838.47	-26.80
838.77	-27.76
839.07	-27.12
839.37	-10.65
839.67	-19.37
839.97	-22.60
840.27	-23.24
840.57	-36.48
840.88	-32.93
841.18	-6.13
841.48	-4.84
841.78	-6.46
842.08	-0.97
842.38	6.46
842.68	16.14
842.98	14.85
843.28	7.75
843.58	0.00
843.88	12.59
844.18	14.53
844.48	19.37
844.78	13.56
845.08	20.02
845.38	11.94
845.68	14.53
845.98	5.81
846.28	-6.13
846.58	-24.21
846.88	-34.22
847.18	-34.54
847.48	-32.61
847.78	-32.61
848.07	-23.57
848.37	-19.69
848.67	-11.62
848.97	-15.82
849.27	-8.72
849.57	-8.39
849.87	-6.13
850.17	-16.46
850.47	-8.39
850.77	-13.56
851.07	1.29
851.36	-24.86
851.66	-40.68
851.96	-50.04
852.26	-46.49
852.56	-38.74
852.86	-26.47
853.16	-36.16
853.45	-13.88
853.75	10.65
854.05	17.11
854.35	10.98
854.65	-10.01
854.95	-15.50
855.24	-4.84
855.54	-5.81
855.84	-10.33
856.14	-24.86
856.44	-9.36
856.73	14.20
857.03	22.60
857.33	33.57
857.63	16.79
857.93	17.76
858.22	21.95
858.52	18.72
858.82	17.11
859.12	28.09
859.41	15.17
859.71	41.00
860.01	31.96
860.30	59.08
860.60	56.17
860.90	42.29
861.20	27.44
861.49	28.09
861.79	15.17
862.09	25.18
862.38	6.46
862.68	0.65
862.98	11.30
863.27	16.46
863.57	17.76
863.87	14.20
864.16	19.69
864.46	27.44
864.76	24.54
865.05	19.37
865.35	10.65
865.65	16.46
865.94	29.70
866.24	10.01
866.54	9.04
866.83	14.85
867.13	30.99
867.42	29.05
867.72	30.35
868.02	10.65
868.31	16.14
868.61	5.17
868.90	2.91
869.20	12.59
869.49	24.54
869.79	25.50
870.08	32.28
870.38	53.59
870.68	66.18
870.97	71.02
871.27	47.78
871.56	11.62
871.86	15.50
872.15	19.69
872.45	4.20
872.74	1.61
873.04	2.91
873.33	-16.14
873.63	7.75
873.92	-7.43
874.22	-14.20
874.51	-0.97
874.81	15.17
875.10	9.68
875.40	18.08
875.69	27.76
875.98	24.86
876.28	41.32
876.57	37.45
876.87	11.30
877.16	8.07
877.46	25.50
877.75	22.60
878.04	36.16
878.34	33.90
878.63	39.39
878.93	46.49
879.22	44.23
879.51	38.09
879.81	26.80
880.10	26.80
880.40	3.55
880.69	-7.43
880.98	-9.36
881.28	1.29
881.57	-3.55
881.86	7.10
882.16	-3.55
882.45	10.01
882.74	1.29
883.04	9.68
883.33	0.65
883.62	-12.27
883.92	45.20
884.21	-49.72
884.50	-90.39
>>>>>End Processed Spectral Data<<<<<
