SpectraSuite Data File
++++++++++++++++++++++++++++++++++++
Date: Fri Feb 20 12:08:44 EST 2015
User: Administrator
Dark Spectrum Present: Yes
Reference Spectrum Present: No
Number of Sampled Component Spectra: 1
Spectrometers: SB2+H01071
Integration Time (usec): 5000000 (SB2+H01071)
Spectra Averaged: 1 (SB2+H01071)
Boxcar Smoothing: 3 (SB2+H01071)
Correct for Electrical Dark: No (SB2+H01071)
Strobe/Lamp Enabled: Yes (SB2+H01071)
Correct for Detector Non-linearity: No (SB2+H01071)
Correct for Stray Light: No (SB2+H01071)
Number of Pixels in Processed Spectrum: 2048
>>>>>Begin Processed Spectral Data<<<<<
191.06	-29.38
191.43	-29.38
191.81	-29.38
192.19	-37.13
192.56	-23.89
192.94	-16.14
193.31	-27.76
193.69	-23.57
194.07	-22.92
194.44	-12.27
194.82	-0.65
195.19	-8.72
195.57	-14.85
195.95	-0.65
196.32	-0.65
196.70	-11.94
197.07	-28.41
197.45	-43.58
197.83	-37.45
198.20	-32.61
198.58	-37.13
198.95	-27.76
199.33	-17.43
199.70	-7.43
200.08	6.46
200.46	15.17
200.83	18.40
201.21	20.34
201.58	7.75
201.96	18.40
202.33	36.48
202.71	42.29
203.09	22.28
203.46	11.62
203.84	19.37
204.21	14.53
204.59	19.37
204.96	2.91
205.34	-2.26
205.71	8.72
206.09	17.11
206.46	10.65
206.84	29.70
207.21	12.59
207.59	19.05
207.96	7.43
208.34	-7.10
208.71	-14.20
209.09	-18.72
209.46	-22.92
209.84	-5.81
210.21	-10.65
210.59	1.29
210.96	3.55
211.34	-3.87
211.71	14.53
212.09	19.37
212.46	-10.65
212.84	-6.78
213.21	-29.38
213.59	-21.31
213.96	-17.76
214.34	-31.96
214.71	-39.39
215.08	-32.93
215.46	-31.96
215.83	-15.82
216.21	-13.56
216.58	-10.98
216.96	-6.78
217.33	3.55
217.70	9.04
218.08	-0.65
218.45	-5.81
218.83	-22.28
219.20	-15.82
219.58	-26.47
219.95	-39.06
220.32	-33.25
220.70	-31.96
221.07	-28.09
221.45	-16.14
221.82	-13.24
222.19	-0.32
222.57	-3.87
222.94	-1.94
223.32	-4.84
223.69	2.91
224.06	19.69
224.44	15.50
224.81	17.11
225.18	13.88
225.56	10.98
225.93	31.96
226.31	31.96
226.68	-0.97
227.05	-6.46
227.43	-2.91
227.80	2.91
228.17	10.65
228.55	9.04
228.92	-3.23
229.29	5.81
229.67	16.14
230.04	-8.07
230.41	-18.40
230.79	-28.09
231.16	-39.39
231.53	-29.38
231.91	-25.83
232.28	-28.73
232.65	-18.72
233.03	-19.69
233.40	2.26
233.77	2.26
234.15	3.87
234.52	8.39
234.89	20.98
235.26	23.24
235.64	34.22
236.01	25.50
236.38	24.86
236.76	17.43
237.13	-16.14
237.50	-28.09
237.87	-30.02
238.25	-10.98
238.62	-17.76
238.99	-27.44
239.36	-16.46
239.74	21.63
240.11	14.85
240.48	22.92
240.85	11.62
241.23	12.91
241.60	28.41
241.97	24.86
242.34	1.61
242.72	13.56
243.09	24.21
243.46	7.43
243.83	-7.75
244.20	-20.98
244.58	-26.47
244.95	-5.81
245.32	-13.88
245.69	-20.34
246.07	-9.04
246.44	-10.01
246.81	14.53
247.18	10.33
247.55	5.17
247.92	3.23
248.30	1.94
248.67	3.87
249.04	17.11
249.41	2.26
249.78	9.68
250.16	31.64
250.53	40.35
250.90	40.03
251.27	51.98
251.64	55.85
252.01	65.86
252.39	76.19
252.76	49.07
253.13	32.28
253.50	17.76
253.87	5.81
254.24	-4.84
254.61	-20.02
254.98	-35.19
255.36	-23.57
255.73	-17.76
256.10	-18.08
256.47	-18.40
256.84	-5.81
257.21	-1.61
257.58	7.75
257.95	0.00
258.33	5.81
258.70	11.62
259.07	3.87
259.44	-2.26
259.81	-4.20
260.18	-10.01
260.55	-6.78
260.92	-12.91
261.29	-10.98
261.66	-6.13
262.03	-11.30
262.40	-23.57
262.77	-20.66
263.15	-21.95
263.52	-10.33
263.89	-23.57
264.26	-33.57
264.63	-39.06
265.00	-20.34
265.37	-16.14
265.74	-14.53
266.11	-22.92
266.48	1.94
266.85	28.09
267.22	33.57
267.59	22.92
267.96	33.90
268.33	31.96
268.70	38.09
269.07	26.80
269.44	20.66
269.81	26.80
270.18	54.56
270.55	16.46
270.92	11.94
271.29	19.69
271.66	21.31
272.03	13.56
272.40	18.72
272.77	-15.17
273.14	16.14
273.51	35.19
273.88	10.01
274.25	0.97
274.62	1.61
274.99	-10.65
275.36	4.20
275.73	-6.46
276.10	-6.13
276.47	10.33
276.84	21.63
277.21	16.79
277.58	9.04
277.94	16.14
278.31	25.83
278.68	19.37
279.05	0.32
279.42	-5.17
279.79	-0.97
280.16	11.62
280.53	15.50
280.90	-8.72
281.27	-25.83
281.64	10.33
282.01	7.75
282.37	7.75
282.74	7.43
283.11	-15.17
283.48	-3.87
283.85	-1.29
284.22	-18.08
284.59	-12.91
284.96	-21.63
285.33	-17.11
285.69	-19.05
286.06	-29.38
286.43	-29.05
286.80	-12.91
287.17	2.26
287.54	22.28
287.91	26.80
288.27	37.45
288.64	50.36
289.01	69.41
289.38	49.39
289.75	29.70
290.12	17.43
290.48	0.32
290.85	-1.61
291.22	-15.50
291.59	-30.99
291.96	-41.32
292.33	-40.03
292.69	-37.45
293.06	-21.63
293.43	-13.24
293.80	6.78
294.17	13.88
294.53	37.13
294.90	39.06
295.27	41.00
295.64	42.29
296.01	51.98
296.37	55.20
296.74	51.65
297.11	35.19
297.48	34.87
297.84	23.89
298.21	20.34
298.58	-5.81
298.95	-23.24
299.31	-26.47
299.68	-13.24
300.05	-19.37
300.42	-9.04
300.78	-27.76
301.15	-12.59
301.52	-2.91
301.89	13.56
302.25	1.94
302.62	3.87
302.99	0.97
303.35	8.39
303.72	-8.72
304.09	-15.50
304.46	-21.31
304.82	-15.50
305.19	-8.39
305.56	-17.43
305.92	-7.10
306.29	24.86
306.66	32.93
307.02	24.54
307.39	20.98
307.76	27.12
308.12	47.46
308.49	32.28
308.86	6.13
309.23	5.81
309.59	8.07
309.96	17.43
310.32	17.76
310.69	7.75
311.06	16.46
311.42	17.43
311.79	6.78
312.16	3.55
312.52	7.10
312.89	6.78
313.26	-2.91
313.62	-5.81
313.99	0.00
314.35	10.65
314.72	9.04
315.09	-1.61
315.45	-5.49
315.82	0.97
316.19	1.94
316.55	-7.75
316.92	-13.88
317.28	-8.39
317.65	-9.04
318.02	-15.17
318.38	-8.07
318.75	-11.62
319.11	2.91
319.48	12.91
319.84	27.12
320.21	20.66
320.58	29.38
320.94	46.17
321.31	49.72
321.67	48.42
322.04	40.35
322.40	25.83
322.77	27.44
323.13	31.31
323.50	5.17
323.86	2.91
324.23	11.62
324.60	25.18
324.96	27.12
325.33	14.85
325.69	3.55
326.06	15.50
326.42	1.29
326.79	-15.50
327.15	-41.65
327.52	-57.14
327.88	-40.03
328.25	-40.68
328.61	-38.42
328.98	-9.04
329.34	-16.79
329.71	-20.34
330.07	-17.76
330.44	-17.43
330.80	-18.40
331.16	-36.48
331.53	-45.20
331.89	-21.63
332.26	10.65
332.62	19.05
332.99	19.37
333.35	34.22
333.72	51.01
334.08	50.68
334.45	34.87
334.81	12.59
335.17	15.82
335.54	21.63
335.90	16.14
336.27	-2.58
336.63	-5.17
337.00	-6.78
337.36	8.39
337.72	-13.56
338.09	-30.02
338.45	-43.91
338.82	-39.06
339.18	-38.09
339.54	-47.13
339.91	-46.17
340.27	-29.70
340.63	-21.63
341.00	-11.62
341.36	8.39
341.73	1.29
342.09	31.31
342.45	36.80
342.82	45.52
343.18	56.82
343.54	71.35
343.91	60.05
344.27	73.93
344.63	56.82
345.00	44.23
345.36	47.46
345.72	35.51
346.09	25.18
346.45	30.02
346.81	19.37
347.18	34.87
347.54	40.68
347.90	28.73
348.27	30.99
348.63	16.79
348.99	9.36
349.36	20.34
349.72	10.33
350.08	13.24
350.45	16.46
350.81	12.27
351.17	33.25
351.53	28.41
351.90	30.35
352.26	27.12
352.62	20.02
352.98	16.14
353.35	17.43
353.71	0.97
354.07	7.43
354.44	-10.33
354.80	-2.58
355.16	-7.43
355.52	-7.43
355.88	-18.72
356.25	-12.91
356.61	-23.89
356.97	-35.51
357.33	-33.25
357.70	-18.40
358.06	-19.37
358.42	-14.53
358.78	-35.51
359.15	-31.64
359.51	-10.33
359.87	-26.80
360.23	-42.29
360.59	-33.57
360.95	-25.83
361.32	3.23
361.68	5.49
362.04	-15.82
362.40	-16.79
362.76	-18.72
363.13	-21.63
363.49	-19.69
363.85	-32.61
364.21	-49.07
364.57	-24.86
364.93	-17.43
365.30	-9.36
365.66	-16.79
366.02	-23.24
366.38	-12.91
366.74	15.82
367.10	18.40
367.46	20.34
367.83	9.04
368.19	23.89
368.55	19.37
368.91	10.01
369.27	-0.97
369.63	7.10
369.99	-11.94
370.35	5.17
370.71	7.75
371.08	28.09
371.44	30.99
371.80	36.16
372.16	26.47
372.52	50.68
372.88	47.46
373.24	30.67
373.60	21.63
373.96	18.72
374.32	25.50
374.68	17.43
375.04	10.65
375.40	-1.61
375.76	18.72
376.13	22.60
376.49	31.31
376.85	20.66
377.21	23.57
377.57	29.38
377.93	25.83
378.29	18.72
378.65	15.50
379.01	13.88
379.37	1.61
379.73	-6.46
380.09	-0.65
380.45	16.14
380.81	-0.65
381.17	-7.75
381.53	-8.07
381.89	0.65
382.25	9.04
382.61	3.55
382.97	-4.52
383.33	-5.81
383.69	1.29
384.05	9.04
384.41	18.40
384.77	29.05
385.13	28.41
385.49	21.95
385.85	36.16
386.20	39.71
386.56	8.39
386.92	-5.81
387.28	-28.41
387.64	-40.68
388.00	-47.13
388.36	-51.33
388.72	-51.98
389.08	-46.49
389.44	-32.28
389.80	-18.40
390.16	-6.78
390.52	0.65
390.88	-0.32
391.23	-16.14
391.59	0.32
391.95	-9.04
392.31	-8.07
392.67	-36.48
393.03	-20.02
393.39	-28.09
393.75	-13.24
394.11	-14.85
394.46	0.00
394.82	-4.52
395.18	18.72
395.54	0.65
395.90	4.52
396.26	-11.62
396.62	-24.21
396.97	-33.25
397.33	-41.00
397.69	-47.78
398.05	-49.72
398.41	-38.09
398.77	-38.74
399.12	-33.25
399.48	-27.12
399.84	-13.88
400.20	-21.63
400.56	-10.01
400.91	-30.99
401.27	-30.67
401.63	-20.98
401.99	-34.22
402.35	-28.73
402.70	-34.22
403.06	-41.65
403.42	-34.22
403.78	-20.66
404.14	-24.54
404.49	-18.08
404.85	-33.90
405.21	-15.50
405.57	-1.29
405.92	11.62
406.28	10.33
406.64	10.33
407.00	13.88
407.35	28.73
407.71	25.50
408.07	14.53
408.43	7.43
408.78	20.98
409.14	39.71
409.50	52.30
409.85	48.42
410.21	57.79
410.57	48.10
410.93	56.50
411.28	33.90
411.64	17.43
412.00	-0.32
412.35	-3.87
412.71	0.65
413.07	9.04
413.42	7.75
413.78	16.14
414.14	8.39
414.49	15.82
414.85	23.89
415.21	9.68
415.56	17.76
415.92	27.76
416.28	38.42
416.63	35.19
416.99	32.28
417.35	20.02
417.70	10.01
418.06	0.65
418.42	-0.97
418.77	-3.87
419.13	7.10
419.48	9.04
419.84	-3.23
420.20	11.94
420.55	3.55
420.91	-18.08
421.27	-10.65
421.62	-9.36
421.98	-15.50
422.33	-3.55
422.69	-6.78
423.05	-5.81
423.40	-14.20
423.76	-19.69
424.11	-36.48
424.47	-44.87
424.82	-27.12
425.18	-30.35
425.54	-12.59
425.89	-2.26
426.25	-10.01
426.60	3.23
426.96	2.26
427.31	2.91
427.67	3.87
428.02	2.91
428.38	16.46
428.73	13.88
429.09	11.30
429.44	12.27
429.80	1.29
430.15	24.21
430.51	25.83
430.86	12.27
431.22	16.46
431.57	7.75
431.93	13.88
432.28	11.94
432.64	-5.81
432.99	-5.17
433.35	14.53
433.70	2.26
434.06	14.85
434.41	15.82
434.77	14.85
435.12	30.99
435.48	20.34
435.83	15.50
436.19	36.80
436.54	32.93
436.89	29.05
437.25	35.19
437.60	19.37
437.96	23.24
438.31	22.60
438.67	3.55
439.02	4.20
439.37	1.29
439.73	-18.40
440.08	-16.46
440.44	-18.08
440.79	-23.24
441.15	-26.80
441.50	-27.76
441.85	-28.73
442.21	-12.91
442.56	-11.62
442.91	-15.50
443.27	-25.50
443.62	-13.88
443.98	-15.50
444.33	-14.85
444.68	-12.59
445.04	-4.84
445.39	3.87
445.74	2.91
446.10	5.17
446.45	11.62
446.80	38.74
447.16	30.02
447.51	21.95
447.86	17.43
448.22	34.87
448.57	33.57
448.92	26.80
449.28	7.43
449.63	0.32
449.98	-1.61
450.34	10.65
450.69	-2.58
451.04	-1.94
451.40	-0.97
451.75	-10.01
452.10	12.27
452.45	17.76
452.81	21.95
453.16	23.57
453.51	28.09
453.86	20.02
454.22	14.85
454.57	-11.30
454.92	-23.57
455.27	-42.94
455.63	-44.87
455.98	-57.46
456.33	-64.57
456.68	-60.05
457.04	-56.50
457.39	-56.17
457.74	-51.65
458.09	-60.37
458.45	-62.31
458.80	-59.08
459.15	-44.23
459.50	-43.26
459.85	-53.59
460.21	-39.39
460.56	-30.02
460.91	-7.43
461.26	5.17
461.61	-17.76
461.97	-12.91
462.32	6.78
462.67	-16.79
463.02	-0.65
463.37	7.75
463.72	13.88
464.08	32.61
464.43	19.05
464.78	20.66
465.13	41.97
465.48	41.65
465.83	16.14
466.18	5.81
466.54	11.30
466.89	16.46
467.24	9.68
467.59	-10.33
467.94	-25.18
468.29	-27.44
468.64	-21.95
468.99	-30.35
469.34	-24.86
469.70	-18.72
470.05	-7.43
470.40	-8.07
470.75	-11.30
471.10	-17.43
471.45	-32.93
471.80	-29.38
472.15	-25.83
472.50	-32.28
472.85	-29.38
473.20	-36.48
473.55	-23.57
473.90	-23.89
474.25	-34.22
474.61	-35.19
474.96	-41.97
475.31	-36.16
475.66	-22.28
476.01	-26.15
476.36	2.91
476.71	25.50
477.06	35.83
477.41	54.88
477.76	50.36
478.11	51.98
478.46	53.91
478.81	36.80
479.16	20.34
479.51	7.75
479.86	4.52
480.21	8.39
480.56	12.91
480.91	-0.65
481.26	16.79
481.61	29.05
481.96	36.48
482.31	22.60
482.66	9.04
483.00	0.97
483.35	20.66
483.70	3.87
484.05	-2.58
484.40	-13.24
484.75	-7.43
485.10	9.04
485.45	14.20
485.80	-8.72
486.15	-13.88
486.50	-27.44
486.85	-32.93
487.20	-41.65
487.55	-46.49
487.89	-58.43
488.24	-39.06
488.59	-14.85
488.94	6.78
489.29	2.26
489.64	11.94
489.99	9.04
490.34	19.37
490.68	8.07
491.03	-9.04
491.38	-1.94
491.73	5.49
492.08	16.14
492.43	14.20
492.78	17.11
493.12	19.69
493.47	17.76
493.82	-1.29
494.17	-6.46
494.52	-15.17
494.87	-24.54
495.21	-29.05
495.56	-13.56
495.91	0.32
496.26	17.76
496.61	29.38
496.95	33.57
497.30	50.04
497.65	51.65
498.00	31.64
498.35	31.96
498.69	19.37
499.04	-6.13
499.39	-12.91
499.74	-24.54
500.08	-36.48
500.43	-33.25
500.78	-57.14
501.13	-66.18
501.48	-50.36
501.82	-53.27
502.17	-49.39
502.52	-42.29
502.86	-54.88
503.21	-43.91
503.56	-35.51
503.91	-36.16
504.25	-31.31
504.60	-24.21
504.95	-28.09
505.30	-5.49
505.64	1.94
505.99	3.87
506.34	15.82
506.68	10.65
507.03	5.49
507.38	32.61
507.72	22.28
508.07	15.50
508.42	15.17
508.76	-7.75
509.11	4.52
509.46	17.43
509.80	-11.30
510.15	-9.04
510.50	-10.33
510.84	-21.31
511.19	-15.82
511.54	-19.05
511.88	-30.02
512.23	4.20
512.57	20.98
512.92	17.43
513.27	24.21
513.61	54.24
513.96	52.94
514.31	58.76
514.65	41.00
515.00	10.33
515.34	6.13
515.69	13.88
516.03	-6.13
516.38	-20.98
516.73	-33.57
517.07	-52.62
517.42	-34.54
517.76	-26.47
518.11	-17.11
518.45	-17.43
518.80	-1.29
519.15	14.85
519.49	37.77
519.84	43.26
520.18	41.97
520.53	28.41
520.87	18.72
521.22	10.65
521.56	3.87
521.91	-5.17
522.25	-22.28
522.60	1.94
522.94	14.85
523.29	26.15
523.63	30.99
523.98	19.69
524.32	20.02
524.67	22.28
525.01	-3.23
525.36	-11.94
525.70	-14.20
526.05	-8.07
526.39	0.00
526.74	0.65
527.08	1.29
527.43	-12.59
527.77	-19.05
528.12	-9.36
528.46	-5.49
528.80	-12.59
529.15	-3.87
529.49	7.43
529.84	21.63
530.18	27.44
530.53	6.46
530.87	4.52
531.21	19.69
531.56	7.43
531.90	-2.26
532.25	-0.65
532.59	-0.65
532.93	1.61
533.28	-9.04
533.62	-2.91
533.97	-4.52
534.31	-5.81
534.65	11.94
535.00	9.68
535.34	15.50
535.68	17.11
536.03	-14.85
536.37	-0.32
536.71	19.05
537.06	-4.20
537.40	-7.75
537.74	-10.01
538.09	-21.95
538.43	-7.43
538.77	-16.46
539.12	-20.98
539.46	-10.98
539.80	-7.75
540.15	-4.20
540.49	21.31
540.83	31.96
541.18	72.64
541.52	73.61
541.86	75.87
542.20	67.15
542.55	55.20
542.89	52.62
543.23	46.17
543.58	-3.55
543.92	-17.76
544.26	-20.66
544.60	-12.91
544.95	4.52
545.29	-16.14
545.63	-16.79
545.97	-13.88
546.32	-11.30
546.66	6.13
547.00	20.02
547.34	19.05
547.68	33.90
548.03	24.86
548.37	22.92
548.71	35.51
549.05	12.27
549.39	8.39
549.74	-18.72
550.08	-20.66
550.42	-3.55
550.76	2.58
551.10	-22.60
551.45	-16.14
551.79	-23.89
552.13	-3.55
552.47	-5.49
552.81	-15.17
553.15	-0.65
553.50	15.82
553.84	17.76
554.18	30.35
554.52	46.49
554.86	54.24
555.20	52.62
555.54	36.80
555.88	36.16
556.23	28.09
556.57	14.20
556.91	-13.88
557.25	-22.60
557.59	-20.98
557.93	-10.33
558.27	-9.68
558.61	-6.13
558.95	-8.72
559.29	13.88
559.64	2.91
559.98	-26.47
560.32	-42.29
560.66	-56.50
561.00	-59.72
561.34	-76.19
561.68	-86.84
562.02	-86.84
562.36	-55.53
562.70	-37.77
563.04	-33.57
563.38	-33.90
563.72	-8.72
564.06	-7.75
564.40	10.33
564.74	14.53
565.08	-0.97
565.42	3.55
565.76	10.01
566.10	15.82
566.44	10.33
566.78	-10.33
567.12	-25.50
567.46	-30.99
567.80	-39.71
568.14	-46.17
568.48	-51.65
568.82	-43.58
569.16	-51.65
569.50	-41.97
569.84	-37.13
570.18	9.36
570.52	18.40
570.86	13.56
571.20	14.20
571.54	29.05
571.88	32.61
572.22	41.97
572.55	2.26
572.89	-0.32
573.23	8.39
573.57	-16.79
573.91	3.23
574.25	-4.52
574.59	-21.63
574.93	-17.11
575.27	-16.14
575.61	-29.70
575.94	-2.26
576.28	-11.30
576.62	-6.78
576.96	7.43
577.30	1.29
577.64	8.72
577.98	20.34
578.32	26.15
578.65	23.24
578.99	22.92
579.33	14.53
579.67	20.98
580.01	16.79
580.35	10.98
580.68	-0.65
581.02	-5.81
581.36	-9.04
581.70	-1.94
582.04	-0.65
582.37	1.29
582.71	-7.75
583.05	-12.59
583.39	-12.59
583.73	-17.76
584.06	-5.49
584.40	1.29
584.74	-5.49
585.08	-23.57
585.41	-6.78
585.75	0.65
586.09	13.56
586.43	-3.87
586.76	-28.73
587.10	-20.66
587.44	24.21
587.78	7.10
588.11	-1.94
588.45	-12.91
588.79	-24.54
589.13	-5.49
589.46	-11.30
589.80	-41.65
590.14	-36.48
590.47	-41.65
590.81	-38.74
591.15	-26.47
591.48	-25.18
591.82	-34.54
592.16	-38.09
592.50	-23.24
592.83	-24.86
593.17	-10.65
593.51	-17.11
593.84	-25.83
594.18	-13.88
594.51	21.31
594.85	12.27
595.19	20.66
595.52	-0.97
595.86	3.87
596.20	19.69
596.53	16.46
596.87	-4.52
597.21	-14.53
597.54	-6.46
597.88	3.23
598.21	9.68
598.55	10.01
598.89	22.60
599.22	30.67
599.56	31.64
599.89	37.45
600.23	39.71
600.57	30.99
600.90	20.02
601.24	12.91
601.57	10.33
601.91	-2.58
602.24	-16.46
602.58	-16.14
602.91	-11.94
603.25	-12.91
603.58	-17.11
603.92	-17.76
604.26	10.33
604.59	18.72
604.93	19.69
605.26	32.93
605.60	40.68
605.93	42.94
606.27	23.57
606.60	16.46
606.94	16.79
607.27	32.93
607.61	20.98
607.94	14.20
608.28	1.29
608.61	11.30
608.95	16.46
609.28	11.94
609.61	2.26
609.95	13.56
610.28	22.28
610.62	27.76
610.95	33.57
611.29	28.73
611.62	14.85
611.96	-4.84
612.29	-19.69
612.62	-31.64
612.96	-27.12
613.29	-24.21
613.63	-30.67
613.96	-24.86
614.29	-20.34
614.63	-7.75
614.96	-11.30
615.30	-8.39
615.63	-9.36
615.96	-1.94
616.30	19.37
616.63	21.31
616.97	28.73
617.30	41.32
617.63	33.25
617.97	30.67
618.30	24.86
618.63	13.88
618.97	16.46
619.30	4.52
619.63	0.65
619.97	12.91
620.30	10.98
620.63	18.40
620.97	23.57
621.30	33.90
621.63	22.28
621.97	31.31
622.30	24.86
622.63	40.35
622.96	52.62
623.30	41.97
623.63	37.77
623.96	55.85
624.30	52.30
624.63	45.84
624.96	30.02
625.29	-0.97
625.63	-10.65
625.96	-10.33
626.29	-7.43
626.62	-14.53
626.96	-15.17
627.29	-21.63
627.62	-11.94
627.95	-6.46
628.28	2.58
628.62	-4.84
628.95	-20.66
629.28	-6.46
629.61	19.05
629.95	24.21
630.28	26.80
630.61	24.86
630.94	20.34
631.27	29.38
631.60	20.66
631.94	1.29
632.27	2.26
632.60	10.33
632.93	-5.49
633.26	-10.33
633.59	0.97
633.93	0.32
634.26	0.32
634.59	-12.91
634.92	-12.59
635.25	-14.85
635.58	-20.02
635.91	-25.18
636.24	-20.66
636.58	-4.20
636.91	0.32
637.24	-7.10
637.57	-2.91
637.90	5.17
638.23	16.79
638.56	10.98
638.89	3.87
639.22	10.98
639.55	11.30
639.88	11.62
640.22	8.72
640.55	-2.91
640.88	-0.97
641.21	-17.43
641.54	-22.28
641.87	-25.50
642.20	-35.83
642.53	-41.32
642.86	-44.87
643.19	-41.00
643.52	-43.58
643.85	-41.00
644.18	-30.99
644.51	-39.71
644.84	-20.02
645.17	-13.24
645.50	-18.08
645.83	-8.39
646.16	15.82
646.49	12.59
646.82	46.81
647.15	46.49
647.48	49.07
647.81	50.04
648.14	50.68
648.47	20.34
648.80	20.02
649.13	10.01
649.46	-2.26
649.79	-3.55
650.11	2.26
650.44	14.20
650.77	13.56
651.10	12.91
651.43	13.56
651.76	3.55
652.09	-9.68
652.42	-13.88
652.75	-21.95
653.08	-4.84
653.41	-6.78
653.73	0.32
654.06	11.62
654.39	28.09
654.72	30.35
655.05	26.15
655.38	13.24
655.71	5.81
656.04	-6.46
656.36	8.39
656.69	2.91
657.02	-9.36
657.35	-26.80
657.68	-27.76
658.01	-24.21
658.33	-25.50
658.66	-35.51
658.99	-38.74
659.32	-35.83
659.65	-23.24
659.97	-29.38
660.30	-23.57
660.63	-13.56
660.96	-15.50
661.29	-4.84
661.61	-12.59
661.94	-9.36
662.27	-0.65
662.60	-8.72
662.92	-16.46
663.25	-28.73
663.58	-37.77
663.91	-36.16
664.23	-31.96
664.56	-18.08
664.89	-17.76
665.22	-18.40
665.54	-0.97
665.87	-7.75
666.20	-7.43
666.53	-27.44
666.85	-30.99
667.18	-29.70
667.51	-17.11
667.83	-39.39
668.16	-38.09
668.49	-25.50
668.81	-3.55
669.14	-16.79
669.47	-0.97
669.79	-5.49
670.12	5.81
670.45	0.97
670.77	-6.78
671.10	-8.39
671.43	-4.84
671.75	-7.75
672.08	-27.12
672.41	-26.80
672.73	-24.54
673.06	-30.02
673.39	-28.09
673.71	-26.47
674.04	-27.44
674.36	-3.23
674.69	-4.20
675.02	10.33
675.34	17.11
675.67	17.11
675.99	26.80
676.32	26.47
676.64	11.30
676.97	11.62
677.30	11.94
677.62	3.55
677.95	5.17
678.27	-12.59
678.60	-11.62
678.92	-4.20
679.25	5.17
679.57	-0.65
679.90	9.68
680.22	17.43
680.55	29.38
680.88	20.02
681.20	27.44
681.53	21.31
681.85	20.34
682.18	29.70
682.50	10.33
682.83	8.72
683.15	7.75
683.47	-3.87
683.80	-18.40
684.12	-5.81
684.45	-10.98
684.77	11.94
685.10	5.49
685.42	1.29
685.75	-2.26
686.07	18.08
686.40	13.56
686.72	0.97
687.04	-26.80
687.37	-29.38
687.69	-1.29
688.02	-6.13
688.34	-10.98
688.67	-26.80
688.99	-26.80
689.31	-13.24
689.64	6.78
689.96	-9.04
690.28	-0.32
690.61	13.24
690.93	33.25
691.26	56.82
691.58	56.82
691.90	28.73
692.23	13.88
692.55	14.53
692.87	9.68
693.20	-7.43
693.52	-21.31
693.84	-27.12
694.17	-18.40
694.49	-8.39
694.81	-7.75
695.14	-15.82
695.46	-12.59
695.78	-17.76
696.11	-9.36
696.43	-4.84
696.75	-6.78
697.08	-21.31
697.40	-31.31
697.72	-39.71
698.04	-35.83
698.37	-25.50
698.69	-26.80
699.01	-21.95
699.33	-2.58
699.66	7.10
699.98	15.82
700.30	19.37
700.62	7.75
700.95	6.46
701.27	12.91
701.59	23.24
701.91	12.91
702.24	8.07
702.56	8.07
702.88	15.17
703.20	28.41
703.52	22.92
703.85	5.17
704.17	22.92
704.49	35.51
704.81	33.25
705.13	19.37
705.45	13.56
705.78	-3.55
706.10	-16.79
706.42	-35.19
706.74	-27.12
707.06	-30.02
707.38	-15.17
707.71	-13.88
708.03	7.43
708.35	28.73
708.67	32.61
708.99	13.56
709.31	9.36
709.63	-14.53
709.95	-20.66
710.27	-20.34
710.60	-16.79
710.92	-25.18
711.24	-27.76
711.56	-22.28
711.88	-10.33
712.20	-15.82
712.52	-22.28
712.84	-41.97
713.16	-29.05
713.48	-26.47
713.80	-20.66
714.12	-33.57
714.44	-39.39
714.76	-30.35
715.08	-20.02
715.40	-8.39
715.72	-9.68
716.04	-25.18
716.36	-11.30
716.68	2.91
717.00	3.55
717.32	13.88
717.64	14.85
717.96	22.28
718.28	39.71
718.60	40.35
718.92	47.46
719.24	29.38
719.56	17.43
719.88	-6.46
720.20	-21.31
720.52	-23.89
720.84	-36.48
721.16	-33.57
721.48	-25.83
721.80	-30.35
722.12	-17.43
722.44	-0.65
722.76	2.26
723.08	9.04
723.40	-8.39
723.72	-12.59
724.03	-6.13
724.35	-2.26
724.67	-1.61
724.99	-7.43
725.31	-1.94
725.63	17.76
725.95	11.30
726.27	0.65
726.58	-8.72
726.90	-10.98
727.22	1.29
727.54	-7.10
727.86	-22.60
728.18	-9.68
728.50	-6.13
728.81	9.36
729.13	10.01
729.45	-4.20
729.77	11.62
730.09	28.09
730.40	15.82
730.72	17.76
731.04	2.58
731.36	12.27
731.68	14.20
731.99	-0.32
732.31	-27.12
732.63	-25.18
732.95	-18.08
733.27	-9.68
733.58	-10.98
733.90	-10.65
734.22	-3.23
734.54	20.98
734.85	26.47
735.17	30.99
735.49	15.50
735.80	-8.39
736.12	-15.17
736.44	-19.05
736.76	-38.42
737.07	-48.10
737.39	-57.14
737.71	-47.78
738.02	-36.48
738.34	-26.80
738.66	-34.22
738.97	-38.42
739.29	-40.03
739.61	-41.97
739.93	-33.25
740.24	-33.25
740.56	-35.83
740.87	-33.25
741.19	-26.80
741.51	-12.27
741.82	-2.58
742.14	-4.20
742.46	-13.56
742.77	-19.69
743.09	-3.55
743.41	-16.14
743.72	-21.95
744.04	-29.70
744.35	-19.05
744.67	-11.30
744.99	-10.01
745.30	-32.61
745.62	8.39
745.93	17.43
746.25	9.36
746.56	1.94
746.88	12.27
747.20	30.99
747.51	48.10
747.83	26.47
748.14	17.11
748.46	49.07
748.77	38.74
749.09	40.35
749.40	31.96
749.72	26.15
750.03	36.16
750.35	48.75
750.66	33.25
750.98	56.50
751.29	47.78
751.61	48.10
751.92	53.91
752.24	40.68
752.55	31.31
752.87	19.05
753.18	-14.85
753.50	-22.60
753.81	-20.98
754.13	-38.42
754.44	-42.29
754.76	-57.46
755.07	-58.43
755.38	-43.26
755.70	-51.65
756.01	-58.43
756.33	-43.91
756.64	-40.03
756.95	-41.32
757.27	-38.74
757.58	-28.09
757.90	-15.82
758.21	-8.72
758.52	0.32
758.84	7.10
759.15	36.48
759.47	55.53
759.78	43.26
760.09	56.82
760.41	61.66
760.72	70.38
761.03	55.85
761.35	27.76
761.66	5.81
761.97	2.26
762.29	-4.20
762.60	-13.88
762.91	-35.51
763.23	-8.72
763.54	15.50
763.85	36.80
764.17	36.48
764.48	39.71
764.79	32.93
765.10	38.42
765.42	34.22
765.73	22.60
766.04	13.88
766.36	21.95
766.67	8.72
766.98	11.62
767.29	-5.49
767.61	-18.72
767.92	-12.27
768.23	-9.68
768.54	-20.34
768.86	-13.24
769.17	-3.87
769.48	13.88
769.79	13.88
770.10	22.60
770.42	16.46
770.73	28.09
771.04	24.86
771.35	14.53
771.66	23.24
771.98	24.21
772.29	3.55
772.60	-10.33
772.91	-9.04
773.22	-8.07
773.53	-5.81
773.85	-13.56
774.16	-15.82
774.47	-18.40
774.78	-15.50
775.09	-19.05
775.40	-31.64
775.71	-31.31
776.02	-36.48
776.34	-33.90
776.65	-19.37
776.96	-6.46
777.27	-17.43
777.58	-2.91
777.89	4.84
778.20	-7.10
778.51	-11.94
778.82	-8.07
779.13	-5.49
779.44	7.10
779.75	9.36
780.06	7.10
780.38	22.60
780.69	27.44
781.00	19.05
781.31	10.33
781.62	-1.94
781.93	-7.10
782.24	-8.72
782.55	-5.49
782.86	-4.84
783.17	-0.97
783.48	-10.33
783.79	-3.23
784.10	3.55
784.41	-14.53
784.72	-33.57
785.03	-35.19
785.34	-33.90
785.65	-25.50
785.96	-24.21
786.27	-25.83
786.57	-27.44
786.88	-9.36
787.19	-6.13
787.50	-19.37
787.81	-21.95
788.12	-21.31
788.43	-2.58
788.74	17.11
789.05	4.84
789.36	5.49
789.67	11.62
789.98	30.99
790.29	30.02
790.59	-0.32
790.90	1.29
791.21	12.27
791.52	20.34
791.83	20.66
792.14	14.20
792.45	13.88
792.75	33.90
793.06	20.66
793.37	19.37
793.68	5.17
793.99	0.00
794.30	-4.84
794.60	-5.49
794.91	-9.04
795.22	2.26
795.53	-3.23
795.84	1.61
796.15	16.79
796.45	17.11
796.76	35.83
797.07	34.22
797.38	27.76
797.68	23.24
797.99	32.93
798.30	37.45
798.61	21.31
798.91	-3.55
799.22	7.43
799.53	24.21
799.84	25.18
800.14	21.63
800.45	12.27
800.76	43.58
801.07	59.40
801.37	41.00
801.68	23.24
801.99	24.21
802.29	10.33
802.60	0.97
802.91	-30.02
803.22	-57.14
803.52	-45.52
803.83	-32.61
804.14	-36.48
804.44	-30.35
804.75	-24.86
805.06	-31.96
805.36	-20.66
805.67	-41.97
805.97	-56.82
806.28	-49.39
806.59	-48.42
806.89	-44.87
807.20	-34.87
807.51	-20.34
807.81	3.23
808.12	10.98
808.42	6.78
808.73	0.00
809.04	-1.29
809.34	14.20
809.65	11.30
809.95	-0.97
810.26	3.55
810.56	-4.52
810.87	2.26
811.18	4.52
811.48	-4.52
811.79	-17.43
812.09	-15.82
812.40	-26.80
812.70	-12.27
813.01	-7.75
813.31	-10.65
813.62	4.84
813.92	28.73
814.23	24.86
814.53	19.37
814.84	33.90
815.14	22.60
815.45	14.53
815.75	4.20
816.06	5.17
816.36	20.66
816.67	37.45
816.97	23.57
817.28	31.96
817.58	46.81
817.89	51.65
818.19	32.61
818.49	20.02
818.80	19.69
819.10	21.31
819.41	21.95
819.71	16.14
820.01	-2.91
820.32	-3.23
820.62	-19.37
820.93	-29.38
821.23	-13.56
821.53	-15.82
821.84	-15.17
822.14	-13.88
822.45	-19.69
822.75	1.29
823.05	1.29
823.36	-1.94
823.66	0.97
823.96	5.81
824.27	3.87
824.57	10.65
824.87	9.68
825.18	19.05
825.48	-2.26
825.78	2.58
826.09	2.26
826.39	24.21
826.69	15.17
827.00	13.56
827.30	14.85
827.60	23.24
827.90	17.11
828.21	23.89
828.51	22.92
828.81	29.38
829.11	35.19
829.42	23.24
829.72	16.14
830.02	1.29
830.32	-5.49
830.63	-2.91
830.93	-8.07
831.23	-15.17
831.53	-11.62
831.84	-21.31
832.14	-4.52
832.44	-3.23
832.74	-16.14
833.04	-11.94
833.35	-22.92
833.65	-1.61
833.95	17.11
834.25	10.98
834.55	15.17
834.85	26.15
835.16	38.74
835.46	42.61
835.76	20.98
836.06	12.59
836.36	27.76
836.66	15.82
836.96	-11.94
837.26	-30.99
837.57	-19.05
837.87	-21.31
838.17	-20.66
838.47	-45.20
838.77	-45.84
839.07	-28.41
839.37	5.81
839.67	4.52
839.97	-0.32
840.27	-14.53
840.57	3.55
840.88	-0.32
841.18	16.46
841.48	-18.40
841.78	-33.90
842.08	-17.76
842.38	-3.55
842.68	-9.04
842.98	3.55
843.28	-14.85
843.58	-2.26
843.88	5.81
844.18	6.13
844.48	4.52
844.78	11.62
845.08	22.28
845.38	25.83
845.68	24.86
845.98	23.24
846.28	-0.65
846.58	5.17
846.88	-6.46
847.18	-18.72
847.48	-31.96
847.78	-36.48
848.07	-36.48
848.37	-35.19
848.67	-30.02
848.97	-23.57
849.27	-27.44
849.57	-2.91
849.87	-3.55
850.17	-1.29
850.47	19.37
850.77	8.72
851.07	4.84
851.36	6.13
851.66	-26.15
851.96	-34.54
852.26	-31.64
852.56	-45.84
852.86	-45.84
853.16	-48.75
853.45	-46.49
853.75	-26.15
854.05	-23.89
854.35	-25.18
854.65	-18.40
854.95	-18.40
855.24	-10.33
855.54	-0.65
855.84	-15.17
856.14	-5.17
856.44	8.39
856.73	22.28
857.03	27.12
857.33	45.84
857.63	29.70
857.93	44.87
858.22	43.58
858.52	40.68
858.82	22.60
859.12	29.70
859.41	13.24
859.71	24.54
860.01	14.20
860.30	25.50
860.60	12.91
860.90	7.43
861.20	-6.46
861.49	-13.24
861.79	-16.14
862.09	4.20
862.38	-7.10
862.68	-9.04
862.98	14.53
863.27	23.57
863.57	39.39
863.87	28.73
864.16	6.78
864.46	15.50
864.76	23.57
865.05	16.46
865.35	14.85
865.65	9.04
865.94	13.24
866.24	29.05
866.54	32.93
866.83	32.93
867.13	52.30
867.42	58.76
867.72	47.78
868.02	36.16
868.31	33.57
868.61	27.44
868.90	20.98
869.20	-4.84
869.49	-10.65
869.79	-3.55
870.08	18.40
870.38	23.24
870.68	14.20
870.97	18.08
871.27	21.63
871.56	6.46
871.86	15.17
872.15	17.11
872.45	19.05
872.74	34.87
873.04	34.87
873.33	35.19
873.63	42.29
873.92	17.43
874.22	-2.91
874.51	2.26
874.81	8.72
875.10	19.37
875.40	2.26
875.69	14.85
875.98	28.41
876.28	32.28
876.57	29.05
876.87	16.14
877.16	-3.87
877.46	23.57
877.75	24.21
878.04	18.40
878.34	28.09
878.63	21.95
878.93	20.66
879.22	19.05
879.51	11.30
879.81	1.61
880.10	0.00
880.40	-22.92
880.69	-30.99
880.98	-41.65
881.28	-32.28
881.57	-49.39
881.86	-52.30
882.16	-53.59
882.45	-34.22
882.74	-26.47
883.04	-4.84
883.33	0.65
883.62	11.62
883.92	90.39
884.21	33.90
884.50	-4.52
>>>>>End Processed Spectral Data<<<<<
