SpectraSuite Data File
++++++++++++++++++++++++++++++++++++
Date: Fri Feb 20 12:11:19 EST 2015
User: Administrator
Dark Spectrum Present: Yes
Reference Spectrum Present: No
Number of Sampled Component Spectra: 1
Spectrometers: SB2+H01071
Integration Time (usec): 5000000 (SB2+H01071)
Spectra Averaged: 1 (SB2+H01071)
Boxcar Smoothing: 3 (SB2+H01071)
Correct for Electrical Dark: No (SB2+H01071)
Strobe/Lamp Enabled: Yes (SB2+H01071)
Correct for Detector Non-linearity: No (SB2+H01071)
Correct for Stray Light: No (SB2+H01071)
Number of Pixels in Processed Spectrum: 2048
>>>>>Begin Processed Spectral Data<<<<<
191.06	22.60
191.43	22.60
191.81	22.60
192.19	-5.81
192.56	-6.78
192.94	-15.50
193.31	-39.71
193.69	-46.17
194.07	-48.75
194.44	-31.96
194.82	-25.50
195.19	-34.54
195.57	-28.41
195.95	-8.39
196.32	5.81
196.70	-2.26
197.07	-15.17
197.45	-34.87
197.83	-16.79
198.20	-9.36
198.58	-5.49
198.95	-11.30
199.33	4.84
199.70	6.78
200.08	6.46
200.46	1.61
200.83	-1.94
201.21	-4.84
201.58	-5.81
201.96	-11.94
202.33	-15.17
202.71	-1.29
203.09	-10.65
203.46	-20.98
203.84	-11.94
204.21	-9.04
204.59	-5.49
204.96	4.84
205.34	-3.55
205.71	11.30
206.09	29.38
206.46	27.44
206.84	22.60
207.21	35.51
207.59	42.94
207.96	44.55
208.34	30.99
208.71	15.17
209.09	0.00
209.46	1.61
209.84	-4.84
210.21	-12.59
210.59	-5.17
210.96	-9.68
211.34	-10.01
211.71	-0.65
212.09	20.98
212.46	4.84
212.84	9.36
213.21	2.26
213.59	12.91
213.96	18.40
214.34	13.88
214.71	-12.59
215.08	0.00
215.46	4.52
215.83	4.52
216.21	-2.58
216.58	-11.62
216.96	0.32
217.33	14.85
217.70	0.65
218.08	-11.62
218.45	-9.04
218.83	-2.26
219.20	-3.23
219.58	-20.98
219.95	-24.21
220.32	-12.59
220.70	-1.61
221.07	-5.81
221.45	-13.24
221.82	-1.29
222.19	-4.84
222.57	-15.50
222.94	-11.62
223.32	-24.21
223.69	-6.13
224.06	4.84
224.44	-3.23
224.81	6.78
225.18	9.04
225.56	3.87
225.93	18.08
226.31	24.86
226.68	14.53
227.05	20.02
227.43	16.14
227.80	20.66
228.17	27.12
228.55	20.98
228.92	-3.87
229.29	-5.81
229.67	-5.17
230.04	-1.61
230.41	2.91
230.79	-5.49
231.16	-2.26
231.53	-9.04
231.91	-7.43
232.28	-3.23
232.65	-7.10
233.03	-6.46
233.40	16.14
233.77	10.01
234.15	17.43
234.52	28.41
234.89	28.73
235.26	40.68
235.64	43.58
236.01	16.46
236.38	19.37
236.76	33.90
237.13	1.94
237.50	-6.78
237.87	-26.80
238.25	-34.54
238.62	-22.28
238.99	-10.33
239.36	-6.13
239.74	6.13
240.11	6.13
240.48	24.54
240.85	34.22
241.23	39.06
241.60	20.66
241.97	11.62
242.34	18.72
242.72	16.14
243.09	19.37
243.46	7.75
243.83	-7.75
244.20	-12.59
244.58	-24.54
244.95	-23.57
245.32	-21.95
245.69	-35.19
246.07	-37.77
246.44	-38.74
246.81	-19.37
247.18	-22.60
247.55	-3.87
247.92	7.75
248.30	10.98
248.67	15.82
249.04	16.46
249.41	12.27
249.78	22.28
250.16	19.69
250.53	22.92
250.90	18.40
251.27	27.12
251.64	24.54
252.01	33.57
252.39	32.61
252.76	14.53
253.13	-4.52
253.50	-22.60
253.87	-26.80
254.24	-31.64
254.61	-54.88
254.98	-60.69
255.36	-58.11
255.73	-43.26
256.10	-23.89
256.47	-39.06
256.84	-19.05
257.21	-11.30
257.58	-16.14
257.95	-17.43
258.33	-22.28
258.70	-19.37
259.07	-4.84
259.44	-1.61
259.81	14.20
260.18	15.82
260.55	23.57
260.92	8.72
261.29	11.94
261.66	10.33
262.03	-7.75
262.40	-22.28
262.77	-13.24
263.15	-27.12
263.52	-21.31
263.89	-30.02
264.26	-37.77
264.63	-34.87
265.00	-33.90
265.37	-19.69
265.74	-9.68
266.11	-2.58
266.48	3.87
266.85	22.60
267.22	9.68
267.59	7.43
267.96	4.20
268.33	13.56
268.70	16.46
269.07	31.31
269.44	40.03
269.81	55.20
270.18	64.89
270.55	45.52
270.92	32.61
271.29	28.41
271.66	15.50
272.03	3.23
272.40	7.75
272.77	-14.53
273.14	-0.65
273.51	1.61
273.88	-3.23
274.25	-3.55
274.62	-7.10
274.99	-10.01
275.36	8.39
275.73	-0.32
276.10	8.39
276.47	21.63
276.84	27.12
277.21	23.89
277.58	15.17
277.94	16.46
278.31	23.89
278.68	19.37
279.05	-9.36
279.42	-11.30
279.79	-4.52
280.16	-0.65
280.53	-21.63
280.90	-34.22
281.27	-35.19
281.64	-1.61
282.01	-4.84
282.37	-11.30
282.74	-0.65
283.11	5.49
283.48	10.01
283.85	14.53
284.22	10.98
284.59	1.94
284.96	-9.36
285.33	-19.37
285.69	-15.17
286.06	-27.76
286.43	-39.39
286.80	-40.68
287.17	-22.92
287.54	0.32
287.91	-4.84
288.27	7.75
288.64	33.25
289.01	41.65
289.38	39.06
289.75	35.19
290.12	37.45
290.48	32.93
290.85	29.38
291.22	4.52
291.59	-10.01
291.96	-14.53
292.33	-32.61
292.69	-61.98
293.06	-33.90
293.43	-38.42
293.80	-26.80
294.17	-8.39
294.53	-4.84
294.90	8.07
295.27	28.41
295.64	29.70
296.01	43.58
296.37	43.58
296.74	42.61
297.11	35.83
297.48	39.06
297.84	37.77
298.21	30.35
298.58	7.75
298.95	2.26
299.31	-6.46
299.68	5.49
300.05	2.26
300.42	0.00
300.78	-10.01
301.15	16.46
301.52	26.15
301.89	29.38
302.25	15.82
302.62	10.98
302.99	5.17
303.35	3.55
303.72	-17.11
304.09	-23.24
304.46	-11.30
304.82	-1.94
305.19	2.91
305.56	3.87
305.92	14.85
306.29	27.44
306.66	30.67
307.02	2.91
307.39	-10.33
307.76	-5.49
308.12	5.17
308.49	-16.14
308.86	-34.54
309.23	-40.68
309.59	-20.34
309.96	-0.97
310.32	12.27
310.69	-1.94
311.06	17.11
311.42	31.96
311.79	25.83
312.16	22.28
312.52	14.85
312.89	-4.20
313.26	4.52
313.62	-9.36
313.99	-16.79
314.35	-3.23
314.72	-6.13
315.09	-15.82
315.45	-13.56
315.82	-11.94
316.19	-0.65
316.55	3.55
316.92	16.79
317.28	19.69
317.65	24.86
318.02	18.08
318.38	7.75
318.75	5.81
319.11	-10.33
319.48	-20.02
319.84	-9.04
320.21	-5.81
320.58	-1.61
320.94	19.37
321.31	6.78
321.67	27.44
322.04	26.80
322.40	15.17
322.77	14.20
323.13	19.37
323.50	-5.17
323.86	-6.13
324.23	-17.43
324.60	-9.68
324.96	-1.94
325.33	-21.95
325.69	-28.09
326.06	-8.39
326.42	-1.94
326.79	-8.72
327.15	-22.92
327.52	-28.73
327.88	-6.46
328.25	-6.46
328.61	-24.21
328.98	-10.01
329.34	-0.97
329.71	-16.14
330.07	-31.96
330.44	-33.57
330.80	-22.92
331.16	-22.92
331.53	-28.73
331.89	-28.09
332.26	1.94
332.62	9.04
332.99	9.36
333.35	7.43
333.72	16.79
334.08	6.78
334.45	12.27
334.81	14.53
335.17	10.33
335.54	21.63
335.90	13.24
336.27	6.78
336.63	14.20
337.00	14.53
337.36	-7.10
337.72	-6.13
338.09	-24.21
338.45	-16.79
338.82	0.97
339.18	-7.10
339.54	0.65
339.91	12.91
340.27	21.63
340.63	11.30
341.00	4.20
341.36	-7.43
341.73	-5.81
342.09	-1.94
342.45	11.30
342.82	11.30
343.18	31.64
343.54	39.71
343.91	40.03
344.27	51.33
344.63	38.42
345.00	23.57
345.36	23.24
345.72	17.11
346.09	13.88
346.45	34.22
346.81	23.57
347.18	37.77
347.54	24.54
347.90	19.37
348.27	28.09
348.63	16.46
348.99	-18.40
349.36	-5.49
349.72	-15.50
350.08	-6.78
350.45	-6.46
350.81	-28.09
351.17	-22.60
351.53	-16.79
351.90	-20.98
352.26	-17.76
352.62	-3.23
352.98	-20.98
353.35	-12.91
353.71	-11.94
354.07	3.87
354.44	-7.10
354.80	-15.17
355.16	-29.05
355.52	-13.88
355.88	-16.79
356.25	-9.68
356.61	-15.17
356.97	-23.89
357.33	-28.73
357.70	-27.12
358.06	-29.05
358.42	-29.70
358.78	-54.88
359.15	-67.15
359.51	-51.33
359.87	-61.02
360.23	-55.53
360.59	-43.58
360.95	-35.83
361.32	-20.98
361.68	-25.18
362.04	-44.87
362.40	-28.73
362.76	-42.29
363.13	-46.17
363.49	-47.13
363.85	-37.77
364.21	-36.16
364.57	-15.82
364.93	-15.17
365.30	-10.98
365.66	-4.20
366.02	1.61
366.38	6.13
366.74	30.67
367.10	25.18
367.46	18.72
367.83	31.31
368.19	27.44
368.55	15.50
368.91	9.36
369.27	-12.27
369.63	-3.87
369.99	-13.24
370.35	-13.56
370.71	-2.58
371.08	19.05
371.44	13.88
371.80	41.65
372.16	52.94
372.52	67.15
372.88	65.86
373.24	53.91
373.60	48.75
373.96	62.95
374.32	46.81
374.68	34.22
375.04	30.02
375.40	25.18
375.76	29.05
376.13	21.95
376.49	17.76
376.85	14.85
377.21	15.50
377.57	6.78
377.93	7.75
378.29	15.50
378.65	21.63
379.01	17.76
379.37	14.85
379.73	7.75
380.09	24.54
380.45	16.14
380.81	2.26
381.17	-1.94
381.53	8.72
381.89	13.24
382.25	20.34
382.61	7.43
382.97	9.68
383.33	10.98
383.69	16.79
384.05	17.76
384.41	22.92
384.77	21.95
385.13	44.55
385.49	47.78
385.85	39.39
386.20	41.00
386.56	20.34
386.92	7.10
387.28	10.01
387.64	-3.87
388.00	-6.78
388.36	-16.14
388.72	-23.57
389.08	-33.25
389.44	-35.83
389.80	-52.30
390.16	-53.91
390.52	-55.53
390.88	-54.56
391.23	-46.49
391.59	-25.83
391.95	-13.24
392.31	-10.65
392.67	-15.50
393.03	-11.94
393.39	-0.32
393.75	-5.49
394.11	-8.39
394.46	-0.65
394.82	27.44
395.18	31.96
395.54	37.13
395.90	40.68
396.26	39.06
396.62	27.12
396.97	9.04
397.33	-14.53
397.69	-29.05
398.05	-37.45
398.41	-37.45
398.77	-49.39
399.12	-37.45
399.48	-31.96
399.84	-24.54
400.20	-24.21
400.56	-16.14
400.91	-10.65
401.27	-16.14
401.63	-5.49
401.99	2.91
402.35	5.17
402.70	0.00
403.06	-5.49
403.42	2.26
403.78	31.31
404.14	25.18
404.49	14.53
404.85	10.01
405.21	24.21
405.57	26.80
405.92	19.37
406.28	5.49
406.64	10.65
407.00	6.46
407.35	8.72
407.71	5.17
408.07	4.52
408.43	4.20
408.78	8.07
409.14	11.62
409.50	33.90
409.85	24.21
410.21	47.78
410.57	58.11
410.93	50.04
411.28	51.33
411.64	29.38
412.00	16.46
412.35	23.89
412.71	1.94
413.07	-8.72
413.42	2.26
413.78	3.55
414.14	16.79
414.49	17.43
414.85	19.37
415.21	32.61
415.56	30.67
415.92	31.31
416.28	24.86
416.63	27.12
416.99	20.98
417.35	25.83
417.70	14.53
418.06	6.13
418.42	16.14
418.77	25.50
419.13	15.82
419.48	13.56
419.84	5.17
420.20	8.72
420.55	14.85
420.91	2.58
421.27	-0.97
421.62	13.24
421.98	12.91
422.33	12.59
422.69	20.34
423.05	20.66
423.40	4.20
423.76	1.29
424.11	-18.72
424.47	-4.52
424.82	8.39
425.18	0.65
425.54	7.43
425.89	11.94
426.25	11.62
426.60	11.62
426.96	-1.94
427.31	-7.43
427.67	-15.50
428.02	-13.88
428.38	-13.56
428.73	-25.83
429.09	-30.02
429.44	-30.35
429.80	-35.51
430.15	-20.02
430.51	-26.80
430.86	-17.11
431.22	-11.62
431.57	-5.17
431.93	2.26
432.28	1.94
432.64	-14.85
432.99	0.32
433.35	9.68
433.70	-11.94
434.06	15.82
434.41	12.91
434.77	10.33
435.12	24.54
435.48	3.23
435.83	1.29
436.19	32.93
436.54	8.72
436.89	10.98
437.25	11.30
437.60	0.65
437.96	5.81
438.31	4.84
438.67	-10.65
439.02	-23.24
439.37	-26.47
439.73	-22.60
440.08	-17.76
440.44	-17.43
440.79	-33.25
441.15	-34.87
441.50	-19.69
441.85	-18.40
442.21	-10.33
442.56	-7.43
442.91	-0.97
443.27	-3.23
443.62	11.62
443.98	9.36
444.33	5.81
444.68	0.00
445.04	1.29
445.39	3.23
445.74	14.85
446.10	9.04
446.45	-0.97
446.80	23.89
447.16	6.46
447.51	12.27
447.86	-2.58
448.22	-1.94
448.57	-9.68
448.92	-9.36
449.28	-32.61
449.63	-23.24
449.98	-36.48
450.34	-27.76
450.69	-28.41
451.04	-22.28
451.40	-5.81
451.75	-4.20
452.10	2.91
452.45	13.88
452.81	24.86
453.16	22.28
453.51	32.28
453.86	28.09
454.22	24.86
454.57	8.07
454.92	2.58
455.27	-9.68
455.63	-7.43
455.98	-23.57
456.33	-38.74
456.68	-41.65
457.04	-23.24
457.39	-30.67
457.74	-29.70
458.09	-40.03
458.45	-27.44
458.80	-22.28
459.15	3.55
459.50	-9.36
459.85	-17.76
460.21	-18.40
460.56	-10.33
460.91	-8.07
461.26	-7.10
461.61	-29.05
461.97	-26.80
462.32	-2.58
462.67	-11.30
463.02	-0.65
463.37	-4.20
463.72	5.49
464.08	9.68
464.43	13.88
464.78	13.24
465.13	23.89
465.48	14.20
465.83	23.57
466.18	18.40
466.54	26.80
466.89	22.60
467.24	25.50
467.59	24.54
467.94	22.92
468.29	15.17
468.64	9.36
468.99	14.53
469.34	12.27
469.70	6.46
470.05	10.01
470.40	6.46
470.75	-3.87
471.10	-4.20
471.45	-37.13
471.80	-30.67
472.15	-25.83
472.50	-2.91
472.85	7.75
473.20	8.72
473.55	21.31
473.90	32.28
474.25	23.89
474.61	27.76
474.96	-4.52
475.31	-20.02
475.66	-22.60
476.01	-13.56
476.36	-4.84
476.71	25.83
477.06	21.31
477.41	39.71
477.76	49.72
478.11	56.50
478.46	53.91
478.81	35.19
479.16	7.43
479.51	9.04
479.86	3.55
480.21	11.30
480.56	6.13
480.91	-6.13
481.26	6.13
481.61	12.91
481.96	14.53
482.31	10.33
482.66	0.00
483.00	3.55
483.35	-0.97
483.70	-7.75
484.05	-3.23
484.40	-17.11
484.75	-15.82
485.10	-16.46
485.45	-21.63
485.80	-14.53
486.15	-1.61
486.50	-8.72
486.85	-15.82
487.20	-25.50
487.55	-27.76
487.89	-23.57
488.24	-30.35
488.59	-21.63
488.94	-19.37
489.29	-17.76
489.64	-17.43
489.99	-10.98
490.34	-8.72
490.68	-4.20
491.03	-16.46
491.38	-17.43
491.73	-10.33
492.08	-3.23
492.43	-2.91
492.78	2.26
493.12	2.58
493.47	4.84
493.82	-0.32
494.17	4.84
494.52	4.20
494.87	-7.43
495.21	-27.12
495.56	-14.20
495.91	-17.43
496.26	3.55
496.61	16.14
496.95	21.95
497.30	37.13
497.65	51.33
498.00	50.04
498.35	57.14
498.69	27.12
499.04	9.04
499.39	-9.68
499.74	-17.76
500.08	-20.02
500.43	-21.63
500.78	-27.76
501.13	-15.17
501.48	-18.40
501.82	0.97
502.17	6.13
502.52	7.75
502.86	-12.59
503.21	-3.87
503.56	-6.13
503.91	-5.17
504.25	-13.88
504.60	-15.17
504.95	-13.88
505.30	-4.84
505.64	-6.46
505.99	5.81
506.34	10.98
506.68	16.46
507.03	17.43
507.38	21.63
507.72	21.63
508.07	9.68
508.42	2.58
508.76	-16.79
509.11	-21.31
509.46	-9.36
509.80	-10.33
510.15	-8.39
510.50	-9.68
510.84	-2.26
511.19	14.53
511.54	15.17
511.88	2.26
512.23	6.13
512.57	26.47
512.92	34.54
513.27	23.57
513.61	27.44
513.96	16.46
514.31	9.04
514.65	-7.10
515.00	-40.68
515.34	-34.22
515.69	-30.67
516.03	-33.57
516.38	-47.46
516.73	-34.54
517.07	-26.15
517.42	-7.75
517.76	-19.05
518.11	-19.37
518.45	-29.05
518.80	-12.91
519.15	-25.18
519.49	-16.46
519.84	-13.88
520.18	-20.66
520.53	-28.09
520.87	-33.25
521.22	-20.98
521.56	-0.97
521.91	2.91
522.25	3.87
522.60	24.86
522.94	41.00
523.29	54.24
523.63	57.46
523.98	48.42
524.32	44.55
524.67	29.05
525.01	12.27
525.36	-1.61
525.70	0.65
526.05	-10.33
526.39	-22.92
526.74	-16.46
527.08	4.84
527.43	1.94
527.77	-2.91
528.12	7.75
528.46	23.24
528.80	33.90
529.15	28.41
529.49	23.24
529.84	40.03
530.18	52.30
530.53	31.96
530.87	30.99
531.21	20.66
531.56	19.37
531.90	-0.97
532.25	-1.61
532.59	6.78
532.93	15.17
533.28	7.43
533.62	32.93
533.97	25.83
534.31	39.39
534.65	23.24
535.00	25.18
535.34	24.86
535.68	14.85
536.03	-3.87
536.37	3.55
536.71	10.98
537.06	21.63
537.40	12.91
537.74	6.46
538.09	10.98
538.43	-0.32
538.77	-5.49
539.12	-14.53
539.46	-12.59
539.80	-15.50
540.15	-18.08
540.49	-7.43
540.83	0.97
541.18	58.76
541.52	63.28
541.86	60.05
542.20	70.05
542.55	77.16
542.89	77.80
543.23	85.23
543.58	35.51
543.92	22.92
544.26	26.47
544.60	13.24
544.95	20.02
545.29	-0.65
545.63	-3.87
545.97	-9.36
546.32	-6.78
546.66	0.32
547.00	23.57
547.34	14.20
547.68	31.96
548.03	26.47
548.37	8.72
548.71	21.63
549.05	7.10
549.39	-9.36
549.74	-6.13
550.08	-6.13
550.42	3.55
550.76	13.88
551.10	-12.59
551.45	-4.52
551.79	-7.75
552.13	-9.36
552.47	-15.82
552.81	-19.37
553.15	-18.08
553.50	-1.94
553.84	-2.91
554.18	9.04
554.52	20.66
554.86	24.86
555.20	24.54
555.54	13.56
555.88	3.55
556.23	-1.29
556.57	-11.30
556.91	-32.61
557.25	-31.64
557.59	-42.94
557.93	-25.18
558.27	-1.94
558.61	0.97
558.95	-5.17
559.29	8.39
559.64	6.46
559.98	-3.87
560.32	-8.07
560.66	-21.63
561.00	-9.36
561.34	-14.85
561.68	-13.88
562.02	-25.83
562.36	2.26
562.70	2.58
563.04	17.11
563.38	-7.10
563.72	2.58
564.06	2.91
564.40	8.72
564.74	-0.97
565.08	-2.26
565.42	-15.17
565.76	3.23
566.10	19.05
566.44	22.60
566.78	15.50
567.12	14.53
567.46	14.53
567.80	21.95
568.14	23.24
568.48	14.85
568.82	11.30
569.16	-2.26
569.50	4.84
569.84	-5.17
570.18	16.46
570.52	10.65
570.86	-0.00
571.20	-11.94
571.54	5.17
571.88	-4.84
572.22	9.36
572.55	-8.39
572.89	3.23
573.23	12.91
573.57	4.52
573.91	24.86
574.25	24.21
574.59	13.56
574.93	-4.20
575.27	-13.24
575.61	-13.88
575.94	1.29
576.28	-13.56
576.62	-7.10
576.96	3.55
577.30	19.05
577.64	18.72
577.98	20.98
578.32	33.90
578.65	42.94
578.99	53.27
579.33	42.94
579.67	35.51
580.01	37.77
580.35	33.57
580.68	21.63
581.02	19.37
581.36	17.11
581.70	14.53
582.04	8.07
582.37	5.17
582.71	-2.91
583.05	-2.58
583.39	-7.10
583.73	-16.79
584.06	-22.60
584.40	-10.65
584.74	-17.43
585.08	-28.09
585.41	-26.47
585.75	-26.15
586.09	-25.83
586.43	-21.31
586.76	-35.83
587.10	-19.37
587.44	0.97
587.78	-7.10
588.11	-17.76
588.45	-28.09
588.79	-26.80
589.13	-4.52
589.46	-19.69
589.80	-22.92
590.14	-16.14
590.47	-13.88
590.81	-10.01
591.15	-15.17
591.48	-38.74
591.82	-28.41
592.16	-45.20
592.50	-37.13
592.83	-47.78
593.17	-34.87
593.51	-24.54
593.84	-11.30
594.18	-18.40
594.51	16.79
594.85	29.38
595.19	45.20
595.52	41.97
595.86	39.39
596.20	40.68
596.53	52.62
596.87	33.90
597.21	0.97
597.54	5.17
597.88	5.81
598.21	10.33
598.55	17.43
598.89	9.04
599.22	9.36
599.56	7.43
599.89	2.26
600.23	-2.58
600.57	-1.29
600.90	-17.76
601.24	-18.08
601.57	-12.59
601.91	-19.69
602.24	-10.33
602.58	-17.43
602.91	-20.98
603.25	-17.11
603.58	-19.37
603.92	-23.57
604.26	0.00
604.59	-11.62
604.93	-1.61
605.26	19.37
605.60	31.96
605.93	31.31
606.27	10.65
606.60	21.31
606.94	34.87
607.27	33.57
607.61	26.47
607.94	9.68
608.28	13.24
608.61	36.16
608.95	28.41
609.28	15.82
609.61	18.72
609.95	14.85
610.28	36.80
610.62	35.19
610.95	44.55
611.29	42.29
611.62	36.48
611.96	37.45
612.29	37.45
612.62	23.24
612.96	24.54
613.29	18.72
613.63	22.28
613.96	22.28
614.29	17.11
614.63	6.46
614.96	12.59
615.30	12.27
615.63	8.72
615.96	4.84
616.30	15.17
616.63	21.31
616.97	30.02
617.30	28.09
617.63	28.41
617.97	26.47
618.30	20.98
618.63	18.72
618.97	15.17
619.30	18.72
619.63	5.49
619.97	13.24
620.30	17.76
620.63	16.79
620.97	21.95
621.30	28.73
621.63	12.27
621.97	31.31
622.30	32.28
622.63	50.04
622.96	55.53
623.30	49.39
623.63	50.04
623.96	62.95
624.30	60.37
624.63	51.98
624.96	32.93
625.29	26.80
625.63	25.18
625.96	22.92
626.29	12.27
626.62	6.46
626.96	4.20
627.29	4.20
627.62	2.58
627.95	3.87
628.28	10.01
628.62	16.46
628.95	0.97
629.28	-8.07
629.61	-2.26
629.95	5.81
630.28	1.29
630.61	7.75
630.94	-4.20
631.27	-6.46
631.60	5.81
631.94	-6.13
632.27	-1.61
632.60	12.59
632.93	-6.13
633.26	0.32
633.59	28.41
633.93	15.50
634.26	20.66
634.59	9.68
634.92	-4.84
635.25	6.13
635.58	1.61
635.91	-15.17
636.24	10.65
636.58	24.54
636.91	26.15
637.24	30.67
637.57	14.20
637.90	20.66
638.23	9.68
638.56	-5.49
638.89	-30.67
639.22	-27.44
639.55	-26.47
639.88	-19.69
640.22	-19.69
640.55	-11.62
640.88	-14.53
641.21	-21.31
641.54	-26.15
641.87	-7.75
642.20	-22.28
642.53	-32.93
642.86	-26.80
643.19	-18.72
643.52	-18.72
643.85	-28.73
644.18	-45.20
644.51	-41.65
644.84	-17.11
645.17	-18.08
645.50	-41.65
645.83	-31.31
646.16	-5.17
646.49	-16.46
646.82	4.52
647.15	-0.97
647.48	-1.29
647.81	8.39
648.14	21.63
648.47	6.13
648.80	13.56
649.13	2.58
649.46	-8.39
649.79	-10.01
650.11	6.46
650.44	-3.55
650.77	-16.79
651.10	-16.79
651.43	-12.27
651.76	-13.24
652.09	-13.56
652.42	-31.96
652.75	-36.16
653.08	-12.91
653.41	-10.33
653.73	-6.13
654.06	6.13
654.39	4.52
654.72	25.18
655.05	34.22
655.38	19.69
655.71	17.43
656.04	7.43
656.36	5.49
656.69	16.46
657.02	12.27
657.35	4.52
657.68	9.68
658.01	21.31
658.33	16.79
658.66	15.82
658.99	17.11
659.32	1.61
659.65	-1.94
659.97	-12.27
660.30	-30.35
660.63	-24.21
660.96	-22.60
661.29	-27.12
661.61	-24.54
661.94	-16.79
662.27	0.97
662.60	13.24
662.92	9.68
663.25	-5.17
663.58	-10.01
663.91	-17.11
664.23	-15.82
664.56	-0.32
664.89	-17.11
665.22	-14.53
665.54	2.26
665.87	-1.61
666.20	1.61
666.53	-15.82
666.85	-44.23
667.18	-37.77
667.51	-44.87
667.83	-69.09
668.16	-64.24
668.49	-54.56
668.81	-45.20
669.14	-35.51
669.47	-10.33
669.79	-15.82
670.12	-1.61
670.45	-13.88
670.77	-21.31
671.10	-19.37
671.43	-25.18
671.75	-46.81
672.08	-37.13
672.41	-47.13
672.73	-33.90
673.06	-33.25
673.39	-30.99
673.71	-21.63
674.04	-12.59
674.36	-10.98
674.69	11.62
675.02	6.78
675.34	10.98
675.67	7.43
675.99	5.81
676.32	12.59
676.64	15.82
676.97	9.04
677.30	20.34
677.62	18.08
677.95	26.47
678.27	20.34
678.60	12.59
678.92	7.43
679.25	-5.49
679.57	-15.82
679.90	-22.92
680.22	-13.24
680.55	-15.50
680.88	-24.54
681.20	-17.11
681.53	-7.75
681.85	-7.10
682.18	-4.52
682.50	-28.73
682.83	-19.69
683.15	-12.59
683.47	-19.37
683.80	-31.64
684.12	-36.16
684.45	-38.74
684.77	-28.73
685.10	-54.24
685.42	-50.36
685.75	-56.82
686.07	-48.10
686.40	-48.10
686.72	-37.13
687.04	-33.57
687.37	-12.27
687.69	-1.61
688.02	2.26
688.34	20.02
688.67	12.59
688.99	6.46
689.31	4.52
689.64	26.80
689.96	20.66
690.28	37.13
690.61	21.95
690.93	52.30
691.26	60.05
691.58	48.75
691.90	18.08
692.23	-7.75
692.55	-12.91
692.87	-9.36
693.20	-20.02
693.52	-23.24
693.84	-12.91
694.17	-13.56
694.49	3.55
694.81	-4.20
695.14	-13.24
695.46	-13.88
695.78	-10.98
696.11	-15.82
696.43	-11.94
696.75	-11.94
697.08	-26.15
697.40	-25.18
697.72	-23.24
698.04	-31.96
698.37	-17.76
698.69	-9.36
699.01	-10.33
699.33	15.50
699.66	27.76
699.98	22.60
700.30	33.90
700.62	30.35
700.95	10.98
701.27	20.98
701.59	7.43
701.91	-9.36
702.24	-11.94
702.56	-19.05
702.88	-28.09
703.20	-17.76
703.52	-28.41
703.85	-32.28
704.17	-19.37
704.49	-23.89
704.81	-30.35
705.13	-26.80
705.45	-7.10
705.78	-11.62
706.10	-8.39
706.42	-26.47
706.74	-2.91
707.06	0.97
707.38	5.81
707.71	-10.98
708.03	-10.33
708.35	-2.26
708.67	10.01
708.99	-22.92
709.31	-10.33
709.63	-10.33
709.95	-12.59
710.27	1.29
710.60	7.10
710.92	9.36
711.24	30.35
711.56	17.11
711.88	19.05
712.20	21.95
712.52	7.10
712.84	2.91
713.16	4.52
713.48	2.91
713.80	6.78
714.12	-11.94
714.44	-15.17
714.76	3.87
715.08	0.00
715.40	-0.32
715.72	-7.10
716.04	-20.02
716.36	-14.53
716.68	-9.36
717.00	-16.46
717.32	-14.85
717.64	3.55
717.96	4.20
718.28	23.89
718.60	48.42
718.92	57.79
719.24	39.39
719.56	32.61
719.88	5.81
720.20	-3.23
720.52	-8.72
720.84	-35.19
721.16	-30.02
721.48	-9.04
721.80	-1.29
722.12	4.52
722.44	12.27
722.76	9.36
723.08	8.07
723.40	-11.30
723.72	-25.50
724.03	-20.66
724.35	-15.17
724.67	-10.33
724.99	1.94
725.31	5.81
725.63	18.08
725.95	12.27
726.27	-11.62
726.58	-21.31
726.90	-6.13
727.22	-2.26
727.54	-8.72
727.86	-21.95
728.18	-6.78
728.50	5.81
728.81	17.76
729.13	5.81
729.45	-9.04
729.77	10.33
730.09	23.89
730.40	2.91
730.72	-3.87
731.04	-20.02
731.36	-8.72
731.68	2.91
731.99	-15.82
732.31	-22.92
732.63	-16.79
732.95	-2.91
733.27	12.91
733.58	10.33
733.90	3.23
734.22	10.01
734.54	23.89
734.85	39.06
735.17	35.83
735.49	25.18
735.80	-3.23
736.12	-17.43
736.44	-19.37
736.76	-36.16
737.07	-34.87
737.39	-36.48
737.71	-34.22
738.02	-20.02
738.34	-6.46
738.66	1.61
738.97	-12.27
739.29	-26.47
739.61	-23.89
739.93	-27.44
740.24	-22.28
740.56	-29.05
740.87	-25.18
741.19	-13.24
741.51	-3.55
741.82	-2.58
742.14	22.28
742.46	22.28
742.77	11.94
743.09	13.56
743.41	14.53
743.72	17.76
744.04	11.30
744.35	2.58
744.67	-0.32
744.99	2.91
745.30	-30.35
745.62	-15.17
745.93	-9.36
746.25	-20.66
746.56	-34.22
746.88	-37.45
747.20	-15.17
747.51	6.78
747.83	-2.91
748.14	-6.78
748.46	3.23
748.77	-3.23
749.09	2.26
749.40	-10.01
749.72	-9.36
750.03	-7.10
750.35	-21.63
750.66	-7.43
750.98	10.33
751.29	23.24
751.61	26.80
751.92	34.87
752.24	27.76
752.55	34.54
752.87	20.34
753.18	4.84
753.50	-22.92
753.81	-20.34
754.13	-25.83
754.44	-29.38
754.76	-29.05
755.07	-23.57
755.38	-11.94
755.70	-9.36
756.01	-26.47
756.33	-37.13
756.64	-35.83
756.95	-29.70
757.27	-38.42
757.58	-37.77
757.90	-19.05
758.21	8.72
758.52	23.24
758.84	32.61
759.15	27.12
759.47	48.10
759.78	46.81
760.09	47.78
760.41	34.54
760.72	39.06
761.03	33.25
761.35	23.89
761.66	-4.52
761.97	-8.07
762.29	-30.99
762.60	-30.02
762.91	-39.06
763.23	-26.15
763.54	-13.88
763.85	21.95
764.17	31.64
764.48	53.27
764.79	45.84
765.10	44.23
765.42	38.42
765.73	36.48
766.04	14.53
766.36	4.20
766.67	-19.05
766.98	-19.69
767.29	-27.76
767.61	-21.31
767.92	-15.82
768.23	-20.98
768.54	-23.57
768.86	-8.39
769.17	6.78
769.48	16.79
769.79	10.65
770.10	9.68
770.42	22.28
770.73	32.61
771.04	36.48
771.35	30.02
771.66	19.05
771.98	12.27
772.29	-5.81
772.60	-13.56
772.91	-22.92
773.22	-29.38
773.53	-33.25
773.85	-23.24
774.16	-31.96
774.47	-31.31
774.78	-43.58
775.09	-37.45
775.40	-52.62
775.71	-40.35
776.02	-29.05
776.34	-0.97
776.65	18.72
776.96	39.39
777.27	39.39
777.58	54.88
777.89	40.35
778.20	18.40
778.51	-1.94
778.82	-2.26
779.13	-6.13
779.44	6.78
779.75	-1.61
780.06	2.58
780.38	15.82
780.69	20.66
781.00	11.30
781.31	22.28
781.62	11.30
781.93	17.76
782.24	1.61
782.55	-0.65
782.86	-7.10
783.17	-2.26
783.48	-17.76
783.79	-27.12
784.10	-24.54
784.41	-19.37
784.72	-11.62
785.03	-7.43
785.34	-12.91
785.65	-14.85
785.96	2.58
786.27	6.46
786.57	19.69
786.88	13.88
787.19	6.46
787.50	-1.61
787.81	-2.26
788.12	-11.30
788.43	4.84
788.74	4.84
789.05	-10.98
789.36	-2.91
789.67	1.61
789.98	22.60
790.29	26.15
790.59	4.84
790.90	6.46
791.21	11.30
791.52	20.98
791.83	23.57
792.14	16.79
792.45	15.82
792.75	23.24
793.06	10.65
793.37	26.47
793.68	0.65
793.99	-7.10
794.30	-12.59
794.60	-0.97
794.91	0.00
795.22	15.82
795.53	5.81
795.84	29.70
796.15	49.72
796.45	46.49
796.76	46.17
797.07	40.35
797.38	27.44
797.68	17.43
797.99	13.56
798.30	36.16
798.61	31.64
798.91	11.94
799.22	18.72
799.53	34.87
799.84	47.78
800.14	55.53
800.45	32.61
800.76	38.74
801.07	51.98
801.37	48.42
801.68	35.51
801.99	35.83
802.29	33.90
802.60	22.60
802.91	9.68
803.22	-1.29
803.52	0.32
803.83	-11.30
804.14	-22.28
804.44	-30.02
804.75	-33.25
805.06	-31.96
805.36	-45.52
805.67	-63.92
805.97	-51.98
806.28	-34.54
806.59	-25.18
806.89	-22.28
807.20	-27.12
807.51	-12.91
807.81	1.61
808.12	5.81
808.42	4.52
808.73	-2.26
809.04	4.84
809.34	29.38
809.65	33.25
809.95	22.60
810.26	20.98
810.56	8.39
810.87	-0.32
811.18	-2.91
811.48	-6.13
811.79	-13.56
812.09	-3.55
812.40	-8.39
812.70	-2.58
813.01	-13.56
813.31	-29.38
813.62	-39.39
813.92	-36.16
814.23	-47.78
814.53	-41.97
814.84	-20.02
815.14	-3.23
815.45	3.87
815.75	11.94
816.06	25.50
816.36	32.93
816.67	35.51
816.97	14.20
817.28	4.52
817.58	10.01
817.89	10.01
818.19	-9.04
818.49	-5.49
818.80	-11.62
819.10	-15.50
819.41	-4.20
819.71	-3.87
820.01	-21.95
820.32	-29.38
820.62	-39.71
820.93	-51.65
821.23	-42.94
821.53	-51.33
821.84	-46.49
822.14	-38.09
822.45	-30.35
822.75	-10.65
823.05	-1.61
823.36	-6.13
823.66	-3.55
823.96	-8.07
824.27	2.91
824.57	4.84
824.87	-3.87
825.18	0.65
825.48	1.61
825.78	20.98
826.09	20.66
826.39	17.43
826.69	21.31
827.00	23.89
827.30	37.45
827.60	40.35
827.90	24.86
828.21	40.03
828.51	35.83
828.81	25.18
829.11	13.24
829.42	-10.01
829.72	-9.04
830.02	-8.72
830.32	-10.65
830.63	1.29
830.93	12.27
831.23	19.69
831.53	20.66
831.84	8.72
832.14	15.50
832.44	9.68
832.74	-10.65
833.04	-5.49
833.35	-9.36
833.65	-2.91
833.95	17.11
834.25	0.00
834.55	-7.43
834.85	6.78
835.16	14.85
835.46	19.69
835.76	33.90
836.06	27.76
836.36	39.39
836.66	46.17
836.96	33.90
837.26	20.98
837.57	20.66
837.87	-5.17
838.17	-9.68
838.47	-16.14
838.77	-18.40
839.07	-16.46
839.37	-9.04
839.67	-14.53
839.97	0.97
840.27	-12.59
840.57	-13.88
840.88	-21.95
841.18	-8.72
841.48	-25.50
841.78	-23.57
842.08	-30.99
842.38	-19.37
842.68	-20.34
842.98	-10.65
843.28	-28.09
843.58	-29.05
843.88	-29.05
844.18	-26.80
844.48	-16.79
844.78	-12.91
845.08	0.00
845.38	6.78
845.68	9.68
845.98	5.81
846.28	-8.39
846.58	-18.72
846.88	-21.63
847.18	-43.58
847.48	-41.00
847.78	-32.93
848.07	-16.14
848.37	-5.49
848.67	-7.43
848.97	1.94
849.27	19.69
849.57	20.66
849.87	30.99
850.17	10.98
850.47	15.17
850.77	15.82
851.07	10.01
851.36	-10.98
851.66	-14.85
851.96	-37.13
852.26	-24.21
852.56	-18.08
852.86	-15.17
853.16	-19.69
853.45	-21.31
853.75	-13.24
854.05	-10.01
854.35	-19.69
854.65	-28.41
854.95	-40.68
855.24	-28.09
855.54	-6.13
855.84	0.32
856.14	11.30
856.44	31.31
856.73	42.61
857.03	58.11
857.33	58.43
857.63	43.58
857.93	42.61
858.22	33.90
858.52	20.98
858.82	23.89
859.12	25.18
859.41	21.63
859.71	31.96
860.01	24.86
860.30	30.35
860.60	27.76
860.90	10.33
861.20	5.81
861.49	0.32
861.79	-3.23
862.09	-4.20
862.38	-16.14
862.68	-18.40
862.98	-7.75
863.27	-12.59
863.57	-1.61
863.87	-10.33
864.16	-13.24
864.46	-6.13
864.76	-0.65
865.05	-2.91
865.35	-13.24
865.65	-25.50
865.94	-6.13
866.24	-9.68
866.54	1.29
866.83	7.43
867.13	27.44
867.42	47.46
867.72	48.75
868.02	26.47
868.31	38.42
868.61	22.60
868.90	12.91
869.20	10.65
869.49	7.75
869.79	19.69
870.08	29.05
870.38	36.16
870.68	28.73
870.97	38.09
871.27	21.63
871.56	3.23
871.86	-0.32
872.15	-2.91
872.45	-16.46
872.74	0.65
873.04	1.29
873.33	7.75
873.63	11.30
873.92	2.91
874.22	-10.98
874.51	1.61
874.81	5.17
875.10	-5.17
875.40	-20.98
875.69	-5.49
875.98	-4.84
876.28	30.99
876.57	22.28
876.87	15.82
877.16	20.66
877.46	36.48
877.75	36.48
878.04	46.49
878.34	21.95
878.63	26.15
878.93	39.06
879.22	39.06
879.51	31.96
879.81	31.31
880.10	28.41
880.40	13.56
880.69	-3.55
880.98	-20.98
881.28	-29.70
881.57	-38.42
881.86	-34.54
882.16	-39.39
882.45	-13.24
882.74	-1.94
883.04	16.79
883.33	33.57
883.62	43.91
883.92	83.61
884.21	70.05
884.50	15.82
>>>>>End Processed Spectral Data<<<<<
