SpectraSuite Data File
++++++++++++++++++++++++++++++++++++
Date: Fri Feb 20 12:11:29 EST 2015
User: Administrator
Dark Spectrum Present: Yes
Reference Spectrum Present: No
Number of Sampled Component Spectra: 1
Spectrometers: SB2+H01071
Integration Time (usec): 5000000 (SB2+H01071)
Spectra Averaged: 1 (SB2+H01071)
Boxcar Smoothing: 3 (SB2+H01071)
Correct for Electrical Dark: No (SB2+H01071)
Strobe/Lamp Enabled: Yes (SB2+H01071)
Correct for Detector Non-linearity: No (SB2+H01071)
Correct for Stray Light: No (SB2+H01071)
Number of Pixels in Processed Spectrum: 2048
>>>>>Begin Processed Spectral Data<<<<<
191.06	-15.82
191.43	-15.82
191.81	-15.82
192.19	-27.12
192.56	-18.08
192.94	-16.46
193.31	-20.66
193.69	-18.08
194.07	-15.82
194.44	-16.79
194.82	-3.87
195.19	-12.27
195.57	-22.60
195.95	-7.75
196.32	15.50
196.70	13.24
197.07	15.17
197.45	-9.68
197.83	1.61
198.20	9.68
198.58	-0.32
198.95	-4.52
199.33	0.97
199.70	2.58
200.08	6.13
200.46	4.52
200.83	9.68
201.21	20.98
201.58	19.05
201.96	34.22
202.33	38.42
202.71	41.65
203.09	30.35
203.46	20.02
203.84	20.02
204.21	18.72
204.59	7.43
204.96	12.59
205.34	19.37
205.71	28.09
206.09	46.81
206.46	42.94
206.84	42.94
207.21	34.54
207.59	24.21
207.96	11.62
208.34	1.61
208.71	-2.26
209.09	-10.01
209.46	-24.54
209.84	-19.69
210.21	-27.12
210.59	-8.72
210.96	-3.23
211.34	-24.21
211.71	-15.82
212.09	-7.43
212.46	-4.84
212.84	-8.39
213.21	-29.38
213.59	-24.21
213.96	-6.46
214.34	-14.53
214.71	-23.57
215.08	-17.11
215.46	7.75
215.83	31.96
216.21	27.44
216.58	29.70
216.96	32.61
217.33	46.81
217.70	34.22
218.08	25.83
218.45	11.94
218.83	-3.55
219.20	-10.01
219.58	-20.66
219.95	-23.24
220.32	-8.39
220.70	-19.37
221.07	-20.02
221.45	-12.59
221.82	-11.94
222.19	0.97
222.57	-6.46
222.94	-25.50
223.32	-21.95
223.69	-8.72
224.06	5.17
224.44	7.43
224.81	6.46
225.18	-0.32
225.56	15.82
225.93	13.56
226.31	7.43
226.68	4.52
227.05	9.04
227.43	4.52
227.80	29.38
228.17	25.50
228.55	30.35
228.92	23.24
229.29	4.20
229.67	0.32
230.04	-11.94
230.41	-27.44
230.79	-31.64
231.16	-30.35
231.53	-32.28
231.91	-22.60
232.28	-29.70
232.65	-7.10
233.03	-3.55
233.40	15.82
233.77	8.07
234.15	9.36
234.52	17.76
234.89	22.28
235.26	11.62
235.64	-1.29
236.01	-19.37
236.38	-5.17
236.76	15.50
237.13	-7.10
237.50	-15.17
237.87	-16.46
238.25	11.62
238.62	18.40
238.99	4.52
239.36	-9.36
239.74	2.58
240.11	14.20
240.48	10.33
240.85	3.23
241.23	-3.55
241.60	-11.62
241.97	-11.30
242.34	-13.88
242.72	-19.69
243.09	-10.98
243.46	-24.86
243.83	-17.76
244.20	-9.04
244.58	-3.55
244.95	3.23
245.32	-5.17
245.69	-11.62
246.07	1.29
246.44	-19.69
246.81	-10.65
247.18	-17.11
247.55	-4.20
247.92	9.36
248.30	8.07
248.67	3.23
249.04	6.13
249.41	7.75
249.78	8.39
250.16	9.36
250.53	15.50
250.90	21.31
251.27	30.35
251.64	25.50
252.01	25.83
252.39	13.88
252.76	9.36
253.13	-9.68
253.50	-17.43
253.87	-28.41
254.24	-1.94
254.61	-10.65
254.98	-19.37
255.36	-23.89
255.73	-17.43
256.10	-16.46
256.47	-3.87
256.84	-9.36
257.21	-11.30
257.58	-7.75
257.95	-16.46
258.33	-10.33
258.70	-10.65
259.07	-31.64
259.44	-30.02
259.81	-33.57
260.18	-31.64
260.55	-29.05
260.92	-45.20
261.29	-26.15
261.66	-23.57
262.03	-28.09
262.40	-10.98
262.77	3.55
263.15	-8.07
263.52	-7.43
263.89	-32.61
264.26	-35.19
264.63	-40.68
265.00	-51.98
265.37	-35.51
265.74	-26.80
266.11	-0.97
266.48	17.11
266.85	35.83
267.22	24.21
267.59	28.09
267.96	12.91
268.33	11.62
268.70	0.65
269.07	1.29
269.44	-8.07
269.81	7.75
270.18	25.18
270.55	7.75
270.92	13.56
271.29	24.21
271.66	18.08
272.03	38.42
272.40	34.22
272.77	11.62
273.14	20.66
273.51	38.42
273.88	19.37
274.25	8.39
274.62	-9.36
274.99	-7.75
275.36	-1.29
275.73	0.65
276.10	2.91
276.47	11.94
276.84	32.28
277.21	31.31
277.58	36.80
277.94	40.35
278.31	53.27
278.68	55.53
279.05	38.74
279.42	37.13
279.79	32.28
280.16	22.28
280.53	11.62
280.90	-12.27
281.27	-42.61
281.64	-24.54
282.01	-24.86
282.37	-21.31
282.74	-10.98
283.11	-9.36
283.48	-3.55
283.85	8.07
284.22	8.72
284.59	3.87
284.96	0.32
285.33	0.00
285.69	9.68
286.06	9.68
286.43	-2.58
286.80	6.78
287.17	21.63
287.54	36.80
287.91	27.76
288.27	27.44
288.64	33.25
289.01	47.78
289.38	43.26
289.75	22.28
290.12	25.50
290.48	6.46
290.85	0.32
291.22	-10.65
291.59	-31.31
291.96	-40.68
292.33	-42.94
292.69	-63.92
293.06	-36.48
293.43	-37.77
293.80	-21.95
294.17	-8.39
294.53	-7.75
294.90	-7.10
295.27	12.91
295.64	21.31
296.01	25.83
296.37	18.40
296.74	27.44
297.11	29.70
297.48	35.19
297.84	18.72
298.21	0.00
298.58	-14.85
298.95	-12.27
299.31	-9.68
299.68	-13.56
300.05	-24.86
300.42	-21.31
300.78	-17.76
301.15	-6.13
301.52	-4.84
301.89	1.94
302.25	-6.46
302.62	18.08
302.99	5.81
303.35	-13.24
303.72	-19.05
304.09	-30.35
304.46	-41.32
304.82	-34.22
305.19	-51.98
305.56	-43.91
305.92	-10.33
306.29	6.78
306.66	20.98
307.02	18.72
307.39	12.59
307.76	31.31
308.12	48.42
308.49	19.69
308.86	0.00
309.23	-5.17
309.59	-10.98
309.96	-13.24
310.32	-20.34
310.69	-36.16
311.06	-19.05
311.42	-20.02
311.79	-25.83
312.16	-21.63
312.52	-12.27
312.89	-14.53
313.26	-11.94
313.62	-11.30
313.99	-1.29
314.35	-2.26
314.72	1.29
315.09	0.97
315.45	1.94
315.82	-2.58
316.19	-3.87
316.55	9.36
316.92	24.21
317.28	16.14
317.65	22.92
318.02	16.14
318.38	15.50
318.75	12.59
319.11	-8.72
319.48	-12.59
319.84	2.58
320.21	-5.81
320.58	-0.32
320.94	18.72
321.31	9.04
321.67	6.46
322.04	3.23
322.40	-1.94
322.77	-6.13
323.13	-9.04
323.50	-20.98
323.86	-19.37
324.23	-12.59
324.60	-7.10
324.96	-15.82
325.33	-26.47
325.69	-33.57
326.06	-30.35
326.42	-29.70
326.79	-40.35
327.15	-46.81
327.52	-44.23
327.88	-21.63
328.25	-18.72
328.61	-25.50
328.98	-20.02
329.34	-9.04
329.71	-15.50
330.07	-17.43
330.44	-26.47
330.80	-18.72
331.16	-27.76
331.53	-28.09
331.89	-8.07
332.26	11.62
332.62	16.46
332.99	28.41
333.35	30.67
333.72	38.09
334.08	37.13
334.45	15.17
334.81	15.82
335.17	-1.61
335.54	-9.04
335.90	-14.53
336.27	-15.82
336.63	-11.30
337.00	-7.10
337.36	-15.17
337.72	-6.78
338.09	-6.46
338.45	-6.13
338.82	-6.13
339.18	-8.72
339.54	-5.17
339.91	-7.43
340.27	0.97
340.63	-2.58
341.00	-7.10
341.36	15.82
341.73	4.52
342.09	15.17
342.45	12.27
342.82	6.13
343.18	18.40
343.54	35.51
343.91	14.20
344.27	26.47
344.63	9.36
345.00	10.98
345.36	15.17
345.72	12.59
346.09	-7.10
346.45	-1.94
346.81	-1.29
347.18	4.84
347.54	11.30
347.90	9.68
348.27	-4.20
348.63	-11.62
348.99	-16.14
349.36	-16.79
349.72	-18.08
350.08	-21.31
350.45	-23.57
350.81	-5.81
351.17	10.98
351.53	2.26
351.90	12.59
352.26	12.27
352.62	10.98
352.98	12.91
353.35	14.85
353.71	4.20
354.07	16.14
354.44	-5.81
354.80	-0.32
355.16	-6.78
355.52	2.26
355.88	-25.83
356.25	-17.11
356.61	-19.69
356.97	-12.91
357.33	-12.91
357.70	-4.84
358.06	-15.82
358.42	-7.43
358.78	-23.24
359.15	-20.66
359.51	-13.56
359.87	-30.99
360.23	-35.51
360.59	-24.86
360.95	-13.56
361.32	10.33
361.68	11.94
362.04	7.75
362.40	20.98
362.76	15.82
363.13	14.53
363.49	12.27
363.85	10.98
364.21	14.20
364.57	23.57
364.93	30.99
365.30	41.65
365.66	35.19
366.02	37.77
366.38	32.28
366.74	40.03
367.10	40.68
367.46	41.00
367.83	31.64
368.19	35.83
368.55	32.28
368.91	29.38
369.27	14.53
369.63	8.07
369.99	-3.87
370.35	-2.91
370.71	-7.75
371.08	1.29
371.44	-0.32
371.80	6.78
372.16	22.60
372.52	29.70
372.88	34.87
373.24	33.90
373.60	33.57
373.96	44.55
374.32	48.42
374.68	34.22
375.04	32.93
375.40	30.02
375.76	41.97
376.13	38.74
376.49	39.06
376.85	30.67
377.21	31.31
377.57	33.90
377.93	28.09
378.29	15.50
378.65	17.76
379.01	7.75
379.37	9.68
379.73	-0.32
380.09	11.62
380.45	14.53
380.81	11.62
381.17	8.07
381.53	19.69
381.89	22.92
382.25	39.06
382.61	14.53
382.97	19.69
383.33	20.66
383.69	20.34
384.05	16.14
384.41	17.11
384.77	5.17
385.13	11.30
385.49	8.07
385.85	8.39
386.20	3.55
386.56	-15.82
386.92	-35.51
387.28	-32.93
387.64	-22.60
388.00	-39.06
388.36	-33.57
388.72	-9.36
389.08	-1.29
389.44	10.65
389.80	3.87
390.16	-5.49
390.52	12.27
390.88	10.33
391.23	-10.98
391.59	0.65
391.95	-4.52
392.31	-0.32
392.67	-12.91
393.03	1.61
393.39	-12.59
393.75	-3.23
394.11	-0.97
394.46	6.13
394.82	15.82
395.18	27.12
395.54	8.07
395.90	23.57
396.26	0.97
396.62	-20.98
396.97	-29.05
397.33	-35.51
397.69	-49.72
398.05	-59.40
398.41	-48.75
398.77	-49.39
399.12	-25.83
399.48	-10.01
399.84	-10.01
400.20	-3.87
400.56	8.39
400.91	0.32
401.27	2.26
401.63	2.91
401.99	-0.32
402.35	-5.49
402.70	-6.78
403.06	-6.46
403.42	-35.83
403.78	-28.73
404.14	-37.13
404.49	-55.53
404.85	-62.31
405.21	-55.53
405.57	-45.84
405.92	-3.87
406.28	-11.62
406.64	-8.72
407.00	7.10
407.35	19.37
407.71	22.92
408.07	9.68
408.43	-9.36
408.78	9.36
409.14	16.46
409.50	30.67
409.85	33.90
410.21	36.80
410.57	41.97
410.93	53.59
411.28	57.46
411.64	42.61
412.00	26.80
412.35	14.85
412.71	21.63
413.07	26.47
413.42	12.59
413.78	1.29
414.14	8.39
414.49	-6.78
414.85	10.33
415.21	-4.20
415.56	-9.36
415.92	11.62
416.28	12.27
416.63	4.84
416.99	24.86
417.35	16.79
417.70	11.30
418.06	12.91
418.42	-10.01
418.77	-2.26
419.13	10.01
419.48	3.87
419.84	-1.94
420.20	20.02
420.55	18.40
420.91	34.87
421.27	29.05
421.62	25.18
421.98	40.68
422.33	38.74
422.69	43.91
423.05	47.78
423.40	29.38
423.76	32.93
424.11	13.56
424.47	3.23
424.82	28.73
425.18	10.98
425.54	25.50
425.89	19.69
426.25	19.05
426.60	19.37
426.96	7.43
427.31	-8.07
427.67	-15.50
428.02	-23.24
428.38	-13.88
428.73	-21.95
429.09	-12.27
429.44	-10.65
429.80	-13.56
430.15	0.65
430.51	-4.52
430.86	-3.87
431.22	-6.46
431.57	-0.65
431.93	10.98
432.28	8.72
432.64	-1.61
432.99	-3.87
433.35	9.04
433.70	-2.91
434.06	-2.91
434.41	-9.68
434.77	-6.13
435.12	2.26
435.48	-4.84
435.83	-8.07
436.19	17.43
436.54	20.02
436.89	18.40
437.25	25.50
437.60	7.43
437.96	2.58
438.31	9.68
438.67	-4.20
439.02	-24.21
439.37	-21.63
439.73	-34.54
440.08	-17.11
440.44	-15.82
440.79	-25.83
441.15	-30.35
441.50	-3.55
441.85	-12.91
442.21	3.55
442.56	-3.23
442.91	11.62
443.27	18.08
443.62	20.34
443.98	18.72
444.33	13.56
444.68	4.20
445.04	1.94
445.39	2.58
445.74	-4.52
446.10	-7.10
446.45	-23.89
446.80	5.49
447.16	-5.17
447.51	-4.20
447.86	1.94
448.22	8.07
448.57	1.94
448.92	1.94
449.28	-15.17
449.63	-19.37
449.98	-18.40
450.34	-11.62
450.69	-16.14
451.04	-3.55
451.40	7.75
451.75	5.49
452.10	22.60
452.45	29.70
452.81	21.63
453.16	26.15
453.51	36.16
453.86	26.80
454.22	19.69
454.57	17.76
454.92	10.01
455.27	-3.23
455.63	-5.81
455.98	-19.69
456.33	-23.57
456.68	-18.40
457.04	-32.93
457.39	-30.99
457.74	-35.51
458.09	-42.29
458.45	-30.02
458.80	-40.35
459.15	-27.76
459.50	-34.22
459.85	-39.39
460.21	-21.63
460.56	-24.86
460.91	-26.47
461.26	-13.56
461.61	-26.80
461.97	-19.05
462.32	-3.55
462.67	-21.95
463.02	-4.52
463.37	-11.30
463.72	-2.91
464.08	-9.04
464.43	-20.98
464.78	-12.91
465.13	4.84
465.48	1.29
465.83	8.72
466.18	5.49
466.54	23.57
466.89	44.87
467.24	36.80
467.59	27.44
467.94	31.31
468.29	35.19
468.64	40.68
468.99	46.81
469.34	49.72
469.70	25.18
470.05	33.57
470.40	20.98
470.75	6.46
471.10	-5.49
471.45	-22.92
471.80	-29.70
472.15	-10.33
472.50	-25.50
472.85	-16.46
473.20	-16.14
473.55	-5.17
473.90	-3.87
474.25	-11.30
474.61	-10.01
474.96	-13.56
475.31	-16.14
475.66	-6.78
476.01	-8.39
476.36	2.26
476.71	23.89
477.06	30.99
477.41	51.98
477.76	36.16
478.11	29.70
478.46	25.50
478.81	25.18
479.16	17.11
479.51	2.91
479.86	-17.11
480.21	-9.68
480.56	-13.56
480.91	-9.68
481.26	-8.07
481.61	-9.04
481.96	7.10
482.31	13.24
482.66	0.65
483.00	3.23
483.35	8.07
483.70	-5.49
484.05	-0.97
484.40	-24.54
484.75	-31.96
485.10	-17.43
485.45	-15.17
485.80	-20.98
486.15	-10.33
486.50	-18.40
486.85	-14.53
487.20	3.23
487.55	3.55
487.89	1.29
488.24	-10.33
488.59	-12.91
488.94	-8.07
489.29	-3.87
489.64	-16.14
489.99	-19.69
490.34	-14.20
490.68	-3.23
491.03	-4.84
491.38	1.94
491.73	9.36
492.08	22.92
492.43	30.67
492.78	33.57
493.12	31.96
493.47	35.83
493.82	14.53
494.17	10.01
494.52	9.68
494.87	-0.97
495.21	-11.62
495.56	-4.52
495.91	-8.39
496.26	15.50
496.61	26.47
496.95	20.34
497.30	25.83
497.65	25.83
498.00	20.66
498.35	30.67
498.69	24.86
499.04	8.07
499.39	-2.58
499.74	-0.00
500.08	-7.10
500.43	1.61
500.78	-23.24
501.13	-32.28
501.48	-25.50
501.82	-23.89
502.17	-24.54
502.52	-11.62
502.86	-30.99
503.21	-13.24
503.56	-14.20
503.91	-26.80
504.25	-9.36
504.60	-14.85
504.95	-20.66
505.30	6.13
505.64	5.17
505.99	13.24
506.34	23.57
506.68	2.91
507.03	6.46
507.38	24.86
507.72	8.72
508.07	3.55
508.42	1.29
508.76	-10.33
509.11	5.81
509.46	13.56
509.80	-0.65
510.15	-8.39
510.50	-8.39
510.84	0.97
511.19	21.95
511.54	17.76
511.88	17.43
512.23	29.70
512.57	41.00
512.92	39.39
513.27	26.15
513.61	23.57
513.96	18.40
514.31	22.28
514.65	14.20
515.00	-2.91
515.34	0.00
515.69	2.26
516.03	3.55
516.38	-3.87
516.73	-14.85
517.07	-28.41
517.42	-10.01
517.76	-8.07
518.11	-10.01
518.45	-28.09
518.80	-28.09
519.15	-19.37
519.49	0.00
519.84	0.32
520.18	-12.27
520.53	-15.17
520.87	-15.82
521.22	-19.05
521.56	-8.72
521.91	-16.79
522.25	-35.51
522.60	-22.92
522.94	-9.36
523.29	-6.46
523.63	17.11
523.98	-14.53
524.32	-12.27
524.67	-2.91
525.01	1.94
525.36	-11.62
525.70	6.13
526.05	3.23
526.39	9.36
526.74	13.56
527.08	7.43
527.43	0.65
527.77	5.49
528.12	8.39
528.46	16.46
528.80	26.80
529.15	20.98
529.49	31.64
529.84	28.09
530.18	29.05
530.53	1.29
530.87	-7.75
531.21	-6.46
531.56	-4.20
531.90	-4.84
532.25	2.91
532.59	15.17
532.93	25.83
533.28	10.65
533.62	26.47
533.97	22.28
534.31	11.62
534.65	7.43
535.00	16.46
535.34	26.47
535.68	43.26
536.03	18.72
536.37	21.63
536.71	45.20
537.06	45.52
537.40	7.43
537.74	-2.58
538.09	-16.14
538.43	-20.66
538.77	-23.24
539.12	-33.57
539.46	-33.90
539.80	-22.28
540.15	-25.50
540.49	-16.14
540.83	10.65
541.18	63.28
541.52	69.41
541.86	86.84
542.20	92.98
542.55	98.46
542.89	112.02
543.23	96.85
543.58	39.06
543.92	24.86
544.26	3.55
544.60	1.29
544.95	9.04
545.29	-20.98
545.63	-35.19
545.97	-36.16
546.32	-48.42
546.66	-46.81
547.00	-36.48
547.34	-40.35
547.68	-25.50
548.03	-9.36
548.37	-16.79
548.71	11.30
549.05	8.72
549.39	1.29
549.74	-8.07
550.08	-12.91
550.42	-11.94
550.76	3.87
551.10	-22.28
551.45	-10.33
551.79	-16.79
552.13	-25.18
552.47	-18.08
552.81	-25.83
553.15	-23.57
553.50	-7.10
553.84	-8.39
554.18	0.00
554.52	25.83
554.86	40.35
555.20	54.88
555.54	57.46
555.88	58.43
556.23	48.42
556.57	52.30
556.91	26.15
557.25	2.26
557.59	-19.69
557.93	-22.28
558.27	-20.66
558.61	-2.91
558.95	-4.52
559.29	21.95
559.64	21.63
559.98	-0.00
560.32	-0.32
560.66	-15.17
561.00	-24.54
561.34	-51.01
561.68	-66.50
562.02	-62.95
562.36	-33.90
562.70	-22.92
563.04	-20.98
563.38	-24.86
563.72	-11.62
564.06	-12.27
564.40	-6.78
564.74	-10.98
565.08	-24.21
565.42	-10.01
565.76	-13.24
566.10	-7.43
566.44	-6.46
566.78	-15.50
567.12	-4.84
567.46	-13.56
567.80	-15.50
568.14	-4.52
568.48	0.97
568.82	10.33
569.16	-6.78
569.50	-1.29
569.84	-9.04
570.18	-19.05
570.52	-14.85
570.86	-12.59
571.20	-10.65
571.54	9.04
571.88	-5.49
572.22	8.39
572.55	10.01
572.89	2.91
573.23	11.62
573.57	-2.91
573.91	2.26
574.25	6.13
574.59	7.43
574.93	-1.29
575.27	-5.81
575.61	-16.79
575.94	-4.84
576.28	-6.13
576.62	2.58
576.96	2.91
577.30	22.28
577.64	33.25
577.98	26.15
578.32	35.83
578.65	47.78
578.99	40.03
579.33	44.55
579.67	52.94
580.01	51.98
580.35	47.78
580.68	30.99
581.02	18.08
581.36	23.57
581.70	14.53
582.04	3.87
582.37	2.58
582.71	10.98
583.05	20.98
583.39	18.40
583.73	8.39
584.06	8.72
584.40	17.76
584.74	18.40
585.08	3.23
585.41	6.46
585.75	5.17
586.09	22.60
586.43	20.98
586.76	4.52
587.10	-4.52
587.44	16.79
587.78	9.04
588.11	24.21
588.45	5.81
588.79	-7.10
589.13	-2.91
589.46	-11.94
589.80	-20.02
590.14	-24.54
590.47	-59.40
590.81	-53.27
591.15	-38.09
591.48	-51.33
591.82	-37.45
592.16	-30.35
592.50	-27.44
592.83	-15.17
593.17	6.78
593.51	4.20
593.84	13.88
594.18	10.98
594.51	17.76
594.85	31.64
595.19	48.75
595.52	35.19
595.86	37.45
596.20	47.13
596.53	50.68
596.87	41.97
597.21	25.50
597.54	26.80
597.88	6.78
598.21	12.27
598.55	11.62
598.89	13.56
599.22	8.39
599.56	4.20
599.89	-0.97
600.23	6.13
600.57	11.30
600.90	6.13
601.24	8.39
601.57	2.91
601.91	-3.87
602.24	2.26
602.58	7.43
602.91	-14.20
603.25	-23.24
603.58	-42.94
603.92	-37.13
604.26	-9.04
604.59	-23.24
604.93	-17.76
605.26	5.81
605.60	20.34
605.93	29.38
606.27	28.09
606.60	10.01
606.94	21.95
607.27	10.33
607.61	5.17
607.94	1.61
608.28	0.32
608.61	14.20
608.95	17.43
609.28	17.43
609.61	13.24
609.95	8.07
610.28	19.37
610.62	18.72
610.95	11.30
611.29	16.46
611.62	-8.39
611.96	5.81
612.29	20.66
612.62	4.20
612.96	-3.55
613.29	-1.29
613.63	-7.75
613.96	20.98
614.29	24.54
614.63	1.29
614.96	-2.91
615.30	9.68
615.63	8.72
615.96	3.55
616.30	-0.97
616.63	-28.73
616.97	-7.43
617.30	5.49
617.63	6.46
617.97	8.72
618.30	20.66
618.63	5.49
618.97	15.17
619.30	1.29
619.63	-4.84
619.97	-11.62
620.30	-27.44
620.63	-23.57
620.97	-15.17
621.30	-10.98
621.63	-26.80
621.97	-19.37
622.30	-15.17
622.63	-5.17
622.96	-12.91
623.30	-9.04
623.63	2.91
623.96	19.05
624.30	10.33
624.63	14.85
624.96	8.39
625.29	-1.29
625.63	-4.20
625.96	-2.91
626.29	4.20
626.62	9.04
626.96	-4.20
627.29	-2.58
627.62	17.43
627.95	11.30
628.28	15.82
628.62	16.46
628.95	-2.91
629.28	-8.72
629.61	-1.94
629.95	-19.69
630.28	-16.79
630.61	-28.41
630.94	-30.67
631.27	-20.66
631.60	-5.49
631.94	-3.87
632.27	10.98
632.60	25.18
632.93	29.05
633.26	30.67
633.59	38.74
633.93	35.51
634.26	33.90
634.59	17.76
634.92	0.65
635.25	-9.04
635.58	-25.83
635.91	-33.90
636.24	-37.13
636.58	-34.54
636.91	-31.64
637.24	-23.57
637.57	-36.16
637.90	-13.56
638.23	-10.98
638.56	-5.17
638.89	-9.04
639.22	-10.98
639.55	-9.36
639.88	11.94
640.22	-1.94
640.55	-6.78
640.88	-3.55
641.21	-23.89
641.54	-31.96
641.87	-30.99
642.20	-41.00
642.53	-49.07
642.86	-39.71
643.19	-38.09
643.52	-26.47
643.85	-23.89
644.18	-36.16
644.51	-52.94
644.84	-35.51
645.17	-34.22
645.50	-50.68
645.83	-49.39
646.16	-35.19
646.49	-33.25
646.82	4.84
647.15	-6.78
647.48	-9.04
647.81	3.55
648.14	18.40
648.47	20.02
648.80	24.86
649.13	23.24
649.46	16.79
649.79	9.36
650.11	9.36
650.44	6.46
650.77	-12.91
651.10	-8.07
651.43	-20.98
651.76	-20.34
652.09	-13.56
652.42	-19.37
652.75	-32.61
653.08	-14.20
653.41	-20.98
653.73	-10.01
654.06	-0.97
654.39	-9.68
654.72	7.43
655.05	11.94
655.38	16.46
655.71	15.50
656.04	6.46
656.36	13.24
656.69	22.60
657.02	10.98
657.35	-10.01
657.68	-18.72
658.01	-14.85
658.33	-5.81
658.66	-17.76
658.99	-15.17
659.32	-9.68
659.65	23.89
659.97	15.50
660.30	8.39
660.63	-3.87
660.96	3.87
661.29	10.01
661.61	3.87
661.94	-19.05
662.27	5.49
662.60	17.76
662.92	21.63
663.25	11.94
663.58	8.72
663.91	-4.20
664.23	-0.32
664.56	-9.04
664.89	-12.59
665.22	-27.12
665.54	-9.36
665.87	-7.75
666.20	-6.78
666.53	-11.62
666.85	-18.40
667.18	-14.85
667.51	-0.65
667.83	-14.20
668.16	-32.28
668.49	-24.21
668.81	-11.30
669.14	0.97
669.47	-0.65
669.79	-10.98
670.12	0.32
670.45	0.00
670.77	6.46
671.10	2.91
671.43	-18.40
671.75	-13.24
672.08	-2.26
672.41	-19.69
672.73	-19.69
673.06	-16.46
673.39	-9.68
673.71	-20.98
674.04	-21.31
674.36	-22.60
674.69	-8.39
675.02	-1.94
675.34	-8.39
675.67	-10.01
675.99	10.65
676.32	5.49
676.64	2.58
676.97	-6.78
677.30	-0.32
677.62	4.84
677.95	11.30
678.27	3.87
678.60	-1.94
678.92	4.20
679.25	-2.91
679.57	-10.33
679.90	-24.54
680.22	-25.18
680.55	-9.04
680.88	-11.30
681.20	-24.21
681.53	-9.04
681.85	-0.65
682.18	16.14
682.50	-5.49
682.83	-10.01
683.15	-0.65
683.47	9.04
683.80	0.32
684.12	-10.65
684.45	-21.95
684.77	-7.43
685.10	-17.43
685.42	-19.05
685.75	-12.59
686.07	-14.20
686.40	-7.43
686.72	-9.04
687.04	-21.95
687.37	-10.33
687.69	6.78
688.02	4.84
688.34	20.34
688.67	17.11
688.99	17.76
689.31	35.19
689.64	39.06
689.96	20.34
690.28	25.18
690.61	24.54
690.93	48.42
691.26	63.60
691.58	51.65
691.90	34.87
692.23	29.05
692.55	4.20
692.87	1.94
693.20	-11.62
693.52	-17.11
693.84	-17.43
694.17	-12.59
694.49	-7.43
694.81	13.24
695.14	2.91
695.46	8.72
695.78	6.13
696.11	3.55
696.43	18.40
696.75	16.79
697.08	13.56
697.40	12.59
697.72	5.49
698.04	3.87
698.37	19.69
698.69	-1.29
699.01	-6.46
699.33	0.32
699.66	2.26
699.98	-10.01
700.30	-15.17
700.62	-18.08
700.95	-10.33
701.27	5.49
701.59	-8.39
701.91	-5.17
702.24	-2.91
702.56	7.43
702.88	13.56
703.20	19.69
703.52	20.66
703.85	24.21
704.17	31.31
704.49	40.03
704.81	36.16
705.13	28.73
705.45	30.02
705.78	24.86
706.10	10.01
706.42	-6.13
706.74	3.23
707.06	13.88
707.38	16.46
707.71	8.39
708.03	3.87
708.35	12.59
708.67	9.36
708.99	-16.14
709.31	-34.54
709.63	-48.75
709.95	-56.82
710.27	-55.53
710.60	-39.71
710.92	-27.44
711.24	-31.96
711.56	-19.69
711.88	-12.27
712.20	-1.29
712.52	-9.68
712.84	-24.54
713.16	-19.37
713.48	-0.32
713.80	-13.24
714.12	-13.56
714.44	-10.33
714.76	6.78
715.08	12.91
715.40	11.30
715.72	13.56
716.04	10.33
716.36	11.30
716.68	9.68
717.00	4.52
717.32	2.26
717.64	6.78
717.96	15.50
718.28	37.45
718.60	44.87
718.92	49.72
719.24	42.29
719.56	41.97
719.88	32.28
720.20	11.62
720.52	-1.61
720.84	-18.08
721.16	-17.76
721.48	-7.75
721.80	-2.26
722.12	3.87
722.44	4.84
722.76	-3.55
723.08	3.87
723.40	-7.75
723.72	-20.98
724.03	-33.25
724.35	-33.90
724.67	-33.90
724.99	-25.83
725.31	-14.85
725.63	-15.17
725.95	-23.57
726.27	-11.62
726.58	-16.14
726.90	-5.81
727.22	10.98
727.54	-0.97
727.86	-6.46
728.18	14.53
728.50	11.30
728.81	29.38
729.13	39.71
729.45	12.91
729.77	22.28
730.09	39.71
730.40	22.60
730.72	30.67
731.04	1.61
731.36	9.36
731.68	33.57
731.99	23.89
732.31	11.62
732.63	12.91
732.95	6.78
733.27	14.53
733.58	7.43
733.90	-4.20
734.22	-5.17
734.54	14.20
734.85	11.62
735.17	16.79
735.49	20.34
735.80	1.94
736.12	-0.32
736.44	-8.07
736.76	-27.76
737.07	-12.27
737.39	-22.92
737.71	-15.82
738.02	-10.01
738.34	-17.11
738.66	-8.39
738.97	-12.27
739.29	-32.28
739.61	-26.47
739.93	-33.57
740.24	-31.31
740.56	-38.09
740.87	-26.47
741.19	-22.60
741.51	2.26
741.82	4.84
742.14	15.17
742.46	19.05
742.77	35.83
743.09	47.46
743.41	32.61
743.72	21.95
744.04	17.43
744.35	14.20
744.67	7.75
744.99	-0.97
745.30	-45.20
745.62	-9.36
745.93	-0.32
746.25	-8.72
746.56	-3.23
746.88	-6.78
747.20	11.30
747.51	47.46
747.83	32.93
748.14	31.31
748.46	30.99
748.77	9.68
749.09	15.17
749.40	21.95
749.72	2.58
750.03	1.94
750.35	-17.11
750.66	-4.52
750.98	16.46
751.29	18.08
751.61	1.29
751.92	10.33
752.24	8.39
752.55	14.53
752.87	5.49
753.18	-7.75
753.50	-15.82
753.81	-12.27
754.13	-24.21
754.44	-29.38
754.76	-22.60
755.07	-18.40
755.38	-22.28
755.70	-43.26
756.01	-49.07
756.33	-41.00
756.64	-32.93
756.95	-37.45
757.27	-49.72
757.58	-45.52
757.90	-15.50
758.21	-7.75
758.52	-0.97
758.84	-15.82
759.15	-3.87
759.47	23.24
759.78	24.21
760.09	25.83
760.41	16.79
760.72	26.47
761.03	38.09
761.35	15.17
761.66	-2.26
761.97	0.65
762.29	-6.46
762.60	-1.94
762.91	-12.59
763.23	-16.46
763.54	14.53
763.85	18.72
764.17	20.02
764.48	20.34
764.79	16.79
765.10	9.36
765.42	14.53
765.73	10.01
766.04	18.08
766.36	21.31
766.67	9.36
766.98	16.14
767.29	23.57
767.61	33.57
767.92	26.47
768.23	16.14
768.54	10.33
768.86	19.37
769.17	18.72
769.48	25.83
769.79	26.47
770.10	18.72
770.42	17.11
770.73	9.68
771.04	1.29
771.35	-9.04
771.66	-11.30
771.98	-29.05
772.29	-19.05
772.60	-23.24
772.91	-5.81
773.22	13.88
773.53	17.43
773.85	15.82
774.16	19.69
774.47	9.68
774.78	13.88
775.09	16.46
775.40	-3.55
775.71	10.33
776.02	2.58
776.34	13.56
776.65	22.92
776.96	34.54
777.27	31.96
777.58	47.13
777.89	40.68
778.20	28.09
778.51	10.98
778.82	-4.20
779.13	-10.65
779.44	-5.81
779.75	-6.46
780.06	-5.81
780.38	16.79
780.69	17.76
781.00	22.28
781.31	25.50
781.62	10.65
781.93	5.49
782.24	-2.91
782.55	-10.01
782.86	5.17
783.17	11.62
783.48	5.49
783.79	10.98
784.10	20.66
784.41	14.85
784.72	16.79
785.03	19.05
785.34	17.76
785.65	30.99
785.96	28.73
786.27	18.40
786.57	19.37
786.88	15.50
787.19	1.29
787.50	-9.04
787.81	-28.09
788.12	-25.18
788.43	-6.13
788.74	17.11
789.05	8.07
789.36	9.04
789.67	21.63
789.98	41.65
790.29	43.91
790.59	34.87
790.90	19.37
791.21	32.28
791.52	42.94
791.83	42.61
792.14	39.39
792.45	27.76
792.75	17.43
793.06	14.20
793.37	20.98
793.68	12.91
793.99	18.72
794.30	17.11
794.60	26.47
794.91	28.73
795.22	30.67
795.53	18.08
795.84	16.79
796.15	14.85
796.45	-2.26
796.76	-4.20
797.07	-5.49
797.38	4.20
797.68	-12.91
797.99	-10.33
798.30	-2.26
798.61	6.13
798.91	-11.30
799.22	-9.36
799.53	4.84
799.84	21.95
800.14	27.76
800.45	24.86
800.76	35.83
801.07	56.17
801.37	57.79
801.68	17.76
801.99	17.76
802.29	22.92
802.60	9.04
802.91	3.87
803.22	-6.13
803.52	-0.00
803.83	20.34
804.14	17.11
804.44	3.23
804.75	4.52
805.06	-7.43
805.36	-20.98
805.67	-39.71
805.97	-49.72
806.28	-51.33
806.59	-43.91
806.89	-47.13
807.20	-47.13
807.51	-16.79
807.81	-2.58
808.12	-7.10
808.42	-2.91
808.73	-14.20
809.04	5.49
809.34	19.37
809.65	15.50
809.95	12.59
810.26	26.47
810.56	22.28
810.87	35.83
811.18	28.41
811.48	20.34
811.79	0.65
812.09	-5.49
812.40	-1.94
812.70	-0.32
813.01	-9.68
813.31	-29.38
813.62	-20.66
813.92	-5.17
814.23	-7.10
814.53	-14.20
814.84	7.43
815.14	0.32
815.45	7.10
815.75	14.85
816.06	16.79
816.36	29.70
816.67	33.90
816.97	9.04
817.28	21.31
817.58	40.03
817.89	26.47
818.19	31.64
818.49	29.70
818.80	36.16
819.10	40.68
819.41	41.97
819.71	31.96
820.01	24.86
820.32	11.62
820.62	-11.62
820.93	-31.64
821.23	-23.89
821.53	-26.15
821.84	-38.09
822.14	-32.28
822.45	-33.90
822.75	-10.98
823.05	8.72
823.36	20.02
823.66	22.92
823.96	34.54
824.27	27.76
824.57	43.26
824.87	37.45
825.18	33.90
825.48	13.56
825.78	20.98
826.09	22.92
826.39	31.96
826.69	16.79
827.00	25.18
827.30	39.71
827.60	41.32
827.90	38.09
828.21	42.94
828.51	46.49
828.81	41.97
829.11	35.19
829.42	9.04
829.72	24.54
830.02	2.91
830.32	-3.87
830.63	6.46
830.93	12.27
831.23	8.39
831.53	22.60
831.84	-6.46
832.14	12.59
832.44	17.11
832.74	-9.36
833.04	-19.69
833.35	-11.30
833.65	-10.33
833.95	5.81
834.25	-5.81
834.55	-9.04
834.85	10.33
835.16	31.31
835.46	21.31
835.76	7.75
836.06	2.91
836.36	7.43
836.66	5.81
836.96	-9.36
837.26	-22.28
837.57	-17.11
837.87	-33.25
838.17	-23.24
838.47	-18.08
838.77	-23.57
839.07	-19.05
839.37	-15.17
839.67	-20.66
839.97	-8.39
840.27	-14.85
840.57	-19.05
840.88	-20.02
841.18	-15.17
841.48	-17.11
841.78	-14.20
842.08	-10.33
842.38	-11.30
842.68	-17.76
842.98	0.65
843.28	3.23
843.58	8.07
843.88	-1.61
844.18	10.65
844.48	11.94
844.78	35.19
845.08	39.39
845.38	42.61
845.68	28.41
845.98	27.44
846.28	1.61
846.58	0.32
846.88	-14.85
847.18	-41.97
847.48	-50.68
847.78	-41.65
848.07	-30.35
848.37	-10.33
848.67	-1.94
848.97	-0.32
849.27	14.85
849.57	20.98
849.87	30.35
850.17	29.70
850.47	29.38
850.77	7.75
851.07	-2.26
851.36	-8.72
851.66	-25.50
851.96	-47.46
852.26	-43.91
852.56	-37.77
852.86	-17.76
853.16	-18.40
853.45	-29.05
853.75	-14.85
854.05	-3.87
854.35	6.46
854.65	-6.13
854.95	-14.85
855.24	-4.84
855.54	10.33
855.84	11.94
856.14	-2.26
856.44	-10.33
856.73	2.58
857.03	12.91
857.33	23.24
857.63	17.11
857.93	22.92
858.22	37.45
858.52	43.26
858.82	35.83
859.12	39.06
859.41	25.83
859.71	25.83
860.01	8.39
860.30	17.11
860.60	4.84
860.90	16.79
861.20	-2.91
861.49	-10.01
861.79	-13.88
862.09	7.10
862.38	-10.33
862.68	-3.55
862.98	-3.55
863.27	-1.61
863.57	20.98
863.87	22.92
864.16	7.75
864.46	20.02
864.76	21.31
865.05	7.43
865.35	7.75
865.65	-7.75
865.94	-3.87
866.24	-19.69
866.54	-19.37
866.83	-14.53
867.13	-6.13
867.42	0.65
867.72	5.81
868.02	-0.65
868.31	12.59
868.61	15.50
868.90	16.79
869.20	31.64
869.49	39.06
869.79	40.68
870.08	50.36
870.38	54.56
870.68	64.89
870.97	51.01
871.27	39.71
871.56	20.66
871.86	8.39
872.15	13.24
872.45	10.65
872.74	-3.55
873.04	3.87
873.33	-15.17
873.63	-16.14
873.92	-14.20
874.22	-41.65
874.51	-26.47
874.81	-23.24
875.10	-18.72
875.40	-10.01
875.69	0.00
875.98	3.55
876.28	25.83
876.57	14.85
876.87	12.91
877.16	3.87
877.46	4.84
877.75	10.65
878.04	9.04
878.34	11.30
878.63	15.50
878.93	25.50
879.22	20.66
879.51	5.81
879.81	-0.65
880.10	2.58
880.40	-18.08
880.69	-32.93
880.98	-50.36
881.28	-37.13
881.57	-32.93
881.86	-23.89
882.16	-26.80
882.45	-3.23
882.74	20.98
883.04	36.80
883.33	41.00
883.62	41.00
883.92	70.05
884.21	79.09
884.50	-67.79
>>>>>End Processed Spectral Data<<<<<
