SpectraSuite Data File
++++++++++++++++++++++++++++++++++++
Date: Fri Feb 20 12:08:49 EST 2015
User: Administrator
Dark Spectrum Present: Yes
Reference Spectrum Present: No
Number of Sampled Component Spectra: 1
Spectrometers: SB2+H01071
Integration Time (usec): 5000000 (SB2+H01071)
Spectra Averaged: 1 (SB2+H01071)
Boxcar Smoothing: 3 (SB2+H01071)
Correct for Electrical Dark: No (SB2+H01071)
Strobe/Lamp Enabled: Yes (SB2+H01071)
Correct for Detector Non-linearity: No (SB2+H01071)
Correct for Stray Light: No (SB2+H01071)
Number of Pixels in Processed Spectrum: 2048
>>>>>Begin Processed Spectral Data<<<<<
191.06	-22.60
191.43	-22.60
191.81	-22.60
192.19	-29.70
192.56	-32.28
192.94	-28.41
193.31	-41.97
193.69	-46.49
194.07	-52.30
194.44	-47.13
194.82	-40.68
195.19	-40.03
195.57	-49.72
195.95	-39.71
196.32	-34.87
196.70	-41.97
197.07	-63.92
197.45	-60.69
197.83	-42.29
198.20	-31.64
198.58	-27.76
198.95	-24.54
199.33	-7.43
199.70	13.88
200.08	13.24
200.46	12.59
200.83	17.43
201.21	22.60
201.58	26.80
201.96	20.34
202.33	29.70
202.71	25.18
203.09	-4.84
203.46	-27.12
203.84	-34.87
204.21	-31.64
204.59	-41.97
204.96	-41.97
205.34	-36.80
205.71	-8.72
206.09	12.27
206.46	18.40
206.84	14.85
207.21	25.50
207.59	24.54
207.96	20.98
208.34	2.26
208.71	-1.29
209.09	-12.27
209.46	-18.08
209.84	-1.94
210.21	-27.44
210.59	-16.46
210.96	-3.55
211.34	-24.54
211.71	-9.04
212.09	-9.04
212.46	-21.95
212.84	-4.20
213.21	-18.08
213.59	-12.91
213.96	9.68
214.34	-2.26
214.71	1.29
215.08	-4.84
215.46	7.43
215.83	12.27
216.21	5.17
216.58	5.49
216.96	14.20
217.33	9.04
217.70	9.36
218.08	-11.30
218.45	-9.68
218.83	-23.24
219.20	-36.48
219.58	-50.04
219.95	-50.68
220.32	-35.83
220.70	-31.64
221.07	-34.87
221.45	-28.09
221.82	-25.83
222.19	-14.20
222.57	-9.36
222.94	-8.72
223.32	-10.33
223.69	-0.32
224.06	4.20
224.44	18.08
224.81	19.05
225.18	18.40
225.56	12.59
225.93	17.43
226.31	15.50
226.68	15.50
227.05	10.01
227.43	-0.97
227.80	3.55
228.17	-1.29
228.55	-3.55
228.92	-15.82
229.29	-17.76
229.67	-18.72
230.04	-17.76
230.41	-13.24
230.79	-13.56
231.16	1.29
231.53	5.49
231.91	7.75
232.28	10.01
232.65	20.66
233.03	16.46
233.40	33.57
233.77	19.69
234.15	30.02
234.52	39.06
234.89	46.81
235.26	57.79
235.64	47.13
236.01	22.28
236.38	35.83
236.76	33.90
237.13	18.72
237.50	-2.58
237.87	-22.60
238.25	-9.04
238.62	-1.61
238.99	-12.91
239.36	-8.07
239.74	-9.68
240.11	-3.87
240.48	-3.55
240.85	-1.29
241.23	0.65
241.60	2.58
241.97	-10.01
242.34	-11.30
242.72	-7.10
243.09	-0.32
243.46	-15.50
243.83	-12.59
244.20	-0.97
244.58	2.58
244.95	13.56
245.32	15.17
245.69	10.01
246.07	17.76
246.44	9.68
246.81	3.55
247.18	-5.81
247.55	1.94
247.92	-7.10
248.30	-8.72
248.67	-7.10
249.04	-15.82
249.41	-12.59
249.78	0.32
250.16	-1.61
250.53	8.07
250.90	6.13
251.27	-1.29
251.64	5.17
252.01	3.87
252.39	2.91
252.76	-1.29
253.13	-14.20
253.50	-27.76
253.87	-20.02
254.24	-22.92
254.61	-31.64
254.98	-47.13
255.36	-59.72
255.73	-46.17
256.10	-36.48
256.47	-26.15
256.84	-0.97
257.21	3.23
257.58	24.21
257.95	36.48
258.33	38.74
258.70	51.33
259.07	41.97
259.44	38.09
259.81	42.94
260.18	17.76
260.55	15.50
260.92	4.84
261.29	7.43
261.66	13.88
262.03	-8.39
262.40	-23.89
262.77	-5.81
263.15	-16.46
263.52	-14.20
263.89	-27.12
264.26	-40.35
264.63	-37.45
265.00	-45.84
265.37	-37.77
265.74	-40.03
266.11	-34.54
266.48	-26.15
266.85	-10.65
267.22	-18.72
267.59	-17.11
267.96	-32.61
268.33	-11.94
268.70	-7.43
269.07	-5.81
269.44	-32.28
269.81	-20.34
270.18	7.75
270.55	-6.46
270.92	-24.86
271.29	-29.05
271.66	-14.53
272.03	5.17
272.40	16.14
272.77	-4.84
273.14	30.35
273.51	41.32
273.88	37.13
274.25	16.14
274.62	15.17
274.99	5.49
275.36	17.11
275.73	-8.07
276.10	1.29
276.47	7.10
276.84	23.89
277.21	20.34
277.58	6.46
277.94	6.13
278.31	16.79
278.68	5.81
279.05	-2.26
279.42	-14.53
279.79	-16.46
280.16	-8.72
280.53	-21.63
280.90	-35.83
281.27	-41.97
281.64	-28.09
282.01	-15.50
282.37	-9.36
282.74	4.20
283.11	10.98
283.48	8.72
283.85	16.14
284.22	9.04
284.59	-5.49
284.96	-12.59
285.33	-11.30
285.69	-1.94
286.06	8.39
286.43	-1.61
286.80	14.53
287.17	25.50
287.54	37.77
287.91	24.86
288.27	36.48
288.64	44.87
289.01	62.95
289.38	48.75
289.75	50.36
290.12	45.84
290.48	30.35
290.85	5.81
291.22	-4.84
291.59	-30.67
291.96	-42.61
292.33	-60.69
292.69	-77.16
293.06	-53.59
293.43	-37.77
293.80	-19.05
294.17	-4.84
294.53	12.59
294.90	29.38
295.27	47.46
295.64	48.42
296.01	40.35
296.37	22.28
296.74	27.12
297.11	16.46
297.48	6.46
297.84	0.00
298.21	-8.39
298.58	-4.84
298.95	-12.27
299.31	-26.80
299.68	-17.11
300.05	-16.79
300.42	-11.62
300.78	-18.40
301.15	-20.66
301.52	-0.97
301.89	3.87
302.25	-6.13
302.62	6.46
302.99	6.78
303.35	11.94
303.72	12.27
304.09	-1.94
304.46	10.98
304.82	16.79
305.19	13.88
305.56	15.50
305.92	22.92
306.29	27.12
306.66	43.26
307.02	35.83
307.39	37.45
307.76	43.91
308.12	45.84
308.49	36.80
308.86	26.15
309.23	29.05
309.59	33.25
309.96	17.43
310.32	9.04
310.69	-4.20
311.06	2.58
311.42	18.72
311.79	-8.72
312.16	-22.60
312.52	-0.97
312.89	-2.91
313.26	-2.26
313.62	-3.23
313.99	-17.11
314.35	7.75
314.72	15.82
315.09	12.27
315.45	1.94
315.82	1.29
316.19	10.33
316.55	3.23
316.92	-11.94
317.28	-18.08
317.65	-30.99
318.02	-26.15
318.38	-29.38
318.75	-41.32
319.11	-42.29
319.48	-48.42
319.84	-33.57
320.21	-26.47
320.58	-22.28
320.94	17.76
321.31	18.72
321.67	30.99
322.04	46.17
322.40	40.68
322.77	39.71
323.13	41.97
323.50	2.26
323.86	2.58
324.23	2.58
324.60	0.32
324.96	-5.49
325.33	-19.69
325.69	-23.57
326.06	-16.46
326.42	-24.54
326.79	-35.19
327.15	-32.28
327.52	-41.97
327.88	-17.11
328.25	-18.40
328.61	-1.94
328.98	10.98
329.34	15.17
329.71	-3.55
330.07	16.46
330.44	-7.43
330.80	-3.55
331.16	-27.76
331.53	-25.18
331.89	-22.28
332.26	11.62
332.62	4.52
332.99	25.83
333.35	28.73
333.72	49.07
334.08	43.26
334.45	44.87
334.81	30.02
335.17	34.54
335.54	29.38
335.90	29.05
336.27	12.27
336.63	26.80
337.00	41.00
337.36	41.97
337.72	28.09
338.09	23.89
338.45	24.21
338.82	36.80
339.18	22.60
339.54	15.82
339.91	20.34
340.27	35.51
340.63	34.22
341.00	28.41
341.36	33.90
341.73	28.09
342.09	26.80
342.45	28.41
342.82	19.69
343.18	29.70
343.54	45.84
343.91	25.83
344.27	35.19
344.63	32.28
345.00	36.48
345.36	40.68
345.72	25.18
346.09	20.34
346.45	39.06
346.81	39.06
347.18	52.94
347.54	36.48
347.90	33.57
348.27	34.22
348.63	11.62
348.99	-1.94
349.36	2.58
349.72	-17.11
350.08	-22.92
350.45	-37.45
350.81	-26.80
351.17	-13.56
351.53	-18.72
351.90	-26.15
352.26	-19.05
352.62	-20.34
352.98	-3.55
353.35	-2.91
353.71	-7.10
354.07	14.20
354.44	6.78
354.80	7.75
355.16	23.24
355.52	13.24
355.88	-0.97
356.25	-1.61
356.61	-24.54
356.97	-24.86
357.33	-22.60
357.70	-15.50
358.06	-11.94
358.42	-14.53
358.78	-30.35
359.15	-30.02
359.51	-22.92
359.87	-47.13
360.23	-52.30
360.59	-48.10
360.95	-38.42
361.32	-19.37
361.68	-10.65
362.04	-27.44
362.40	-14.53
362.76	-31.31
363.13	-21.95
363.49	-28.09
363.85	-35.51
364.21	-49.07
364.57	-33.57
364.93	-31.31
365.30	-13.56
365.66	-17.76
366.02	-10.65
366.38	-14.53
366.74	14.53
367.10	12.91
367.46	19.05
367.83	14.85
368.19	20.66
368.55	14.20
368.91	13.88
369.27	-3.87
369.63	-8.39
369.99	-23.89
370.35	-23.89
370.71	-27.76
371.08	-5.49
371.44	2.91
371.80	16.79
372.16	41.65
372.52	44.55
372.88	38.42
373.24	34.54
373.60	28.73
373.96	43.91
374.32	40.35
374.68	27.12
375.04	34.54
375.40	37.13
375.76	40.03
376.13	27.76
376.49	22.60
376.85	20.98
377.21	23.57
377.57	21.31
377.93	10.01
378.29	-1.61
378.65	12.59
379.01	-2.26
379.37	-17.11
379.73	-36.16
380.09	-13.88
380.45	-1.29
380.81	7.10
381.17	-10.65
381.53	-6.46
381.89	-21.63
382.25	-7.43
382.61	-25.83
382.97	-20.98
383.33	-30.02
383.69	-9.68
384.05	3.55
384.41	32.28
384.77	27.76
385.13	35.19
385.49	9.36
385.85	29.38
386.20	36.16
386.56	12.27
386.92	-16.14
387.28	-12.91
387.64	-28.09
388.00	-19.37
388.36	-33.90
388.72	-41.65
389.08	-40.68
389.44	-23.89
389.80	-27.76
390.16	-17.43
390.52	-10.65
390.88	1.29
391.23	-4.84
391.59	11.94
391.95	12.27
392.31	3.87
392.67	-15.82
393.03	-7.43
393.39	-30.99
393.75	-32.28
394.11	-31.31
394.46	-25.50
394.82	-1.29
395.18	10.98
395.54	5.81
395.90	19.37
396.26	5.17
396.62	-10.33
396.97	-4.84
397.33	-11.62
397.69	-15.50
398.05	-21.63
398.41	-23.89
398.77	-22.92
399.12	-1.94
399.48	-3.23
399.84	-16.14
400.20	-10.98
400.56	-3.55
400.91	-9.04
401.27	-2.91
401.63	-4.84
401.99	-4.52
402.35	-2.91
402.70	-17.43
403.06	-42.61
403.42	-42.94
403.78	-43.58
404.14	-46.81
404.49	-56.82
404.85	-55.20
405.21	-42.29
405.57	-16.46
405.92	-5.81
406.28	1.29
406.64	-10.33
407.00	-14.53
407.35	-3.87
407.71	-8.39
408.07	-7.75
408.43	-15.82
408.78	-18.40
409.14	-2.58
409.50	7.75
409.85	-10.01
410.21	1.61
410.57	-5.81
410.93	14.53
411.28	17.11
411.64	18.72
412.00	18.08
412.35	22.28
412.71	11.94
413.07	11.62
413.42	1.29
413.78	4.20
414.14	-2.91
414.49	-9.68
414.85	1.61
415.21	12.27
415.56	8.07
415.92	16.46
416.28	5.81
416.63	5.17
416.99	17.76
417.35	4.52
417.70	-0.65
418.06	2.58
418.42	14.20
418.77	16.14
419.13	6.13
419.48	-0.97
419.84	15.82
420.20	23.24
420.55	21.63
420.91	1.29
421.27	19.05
421.62	38.09
421.98	36.80
422.33	28.41
422.69	24.86
423.05	23.89
423.40	32.28
423.76	31.96
424.11	23.89
424.47	27.12
424.82	39.06
425.18	26.47
425.54	34.22
425.89	11.94
426.25	-9.68
426.60	-20.66
426.96	-27.12
427.31	-41.32
427.67	-27.12
428.02	-17.43
428.38	-2.58
428.73	7.10
429.09	4.20
429.44	12.59
429.80	8.39
430.15	1.61
430.51	-9.36
430.86	-12.59
431.22	-19.05
431.57	-4.20
431.93	-1.29
432.28	6.46
432.64	-1.61
432.99	6.46
433.35	18.72
433.70	16.46
434.06	12.59
434.41	9.68
434.77	5.49
435.12	35.51
435.48	0.00
435.83	-19.37
436.19	4.20
436.54	0.65
436.89	-16.14
437.25	-12.27
437.60	-43.91
437.96	-13.24
438.31	23.57
438.67	8.07
439.02	9.36
439.37	21.95
439.73	11.62
440.08	26.15
440.44	14.85
440.79	-10.33
441.15	-22.60
441.50	-7.43
441.85	-11.94
442.21	7.10
442.56	2.26
442.91	0.65
443.27	-10.01
443.62	7.10
443.98	-2.91
444.33	-1.61
444.68	-20.34
445.04	-22.60
445.39	1.94
445.74	10.98
446.10	-0.65
446.45	-13.24
446.80	9.04
447.16	14.20
447.51	7.10
447.86	-10.65
448.22	-2.26
448.57	-3.55
448.92	-9.04
449.28	-19.05
449.63	-18.08
449.98	-18.08
450.34	-11.30
450.69	-28.73
451.04	-17.76
451.40	4.52
451.75	-2.26
452.10	12.91
452.45	16.46
452.81	16.46
453.16	16.79
453.51	14.53
453.86	13.56
454.22	2.58
454.57	-17.76
454.92	-26.47
455.27	-30.67
455.63	-24.86
455.98	-28.41
456.33	-45.20
456.68	-42.61
457.04	-36.80
457.39	-19.37
457.74	-22.92
458.09	-23.24
458.45	-27.76
458.80	-28.09
459.15	-6.13
459.50	-6.13
459.85	-21.95
460.21	-10.65
460.56	-14.20
460.91	6.78
461.26	15.82
461.61	-1.94
461.97	-14.85
462.32	1.94
462.67	3.23
463.02	22.60
463.37	14.85
463.72	31.31
464.08	33.90
464.43	32.93
464.78	32.28
465.13	31.31
465.48	20.66
465.83	20.34
466.18	7.43
466.54	13.88
466.89	26.47
467.24	29.05
467.59	21.63
467.94	26.47
468.29	12.59
468.64	7.75
468.99	9.04
469.34	-2.91
469.70	-6.78
470.05	-10.65
470.40	-29.05
470.75	-30.02
471.10	-35.83
471.45	-47.78
471.80	-48.75
472.15	-57.79
472.50	-64.24
472.85	-55.20
473.20	-60.05
473.55	-57.14
473.90	-60.69
474.25	-46.81
474.61	-35.51
474.96	-27.12
475.31	-33.57
475.66	-15.82
476.01	-11.30
476.36	-4.52
476.71	16.79
477.06	11.94
477.41	24.21
477.76	33.57
478.11	31.96
478.46	44.55
478.81	43.58
479.16	16.14
479.51	22.60
479.86	13.24
480.21	22.28
480.56	15.82
480.91	3.23
481.26	20.34
481.61	36.48
481.96	30.67
482.31	28.09
482.66	9.04
483.00	7.75
483.35	2.26
483.70	-19.05
484.05	-32.28
484.40	-29.38
484.75	-24.21
485.10	-16.14
485.45	-9.04
485.80	-12.59
486.15	-5.49
486.50	-1.61
486.85	-9.04
487.20	-15.50
487.55	-20.66
487.89	-32.93
488.24	-24.54
488.59	-12.91
488.94	-13.56
489.29	-16.14
489.64	-1.94
489.99	-4.20
490.34	15.17
490.68	16.46
491.03	9.68
491.38	14.85
491.73	25.50
492.08	20.66
492.43	29.38
492.78	11.30
493.12	12.59
493.47	6.46
493.82	-0.97
494.17	-9.68
494.52	-12.59
494.87	-14.53
495.21	-13.24
495.56	-10.33
495.91	-9.68
496.26	11.62
496.61	22.60
496.95	16.46
497.30	17.43
497.65	18.08
498.00	17.11
498.35	33.90
498.69	12.27
499.04	3.55
499.39	3.23
499.74	8.72
500.08	4.84
500.43	0.32
500.78	-21.31
501.13	-19.37
501.48	-17.11
501.82	-10.01
502.17	-27.12
502.52	-24.21
502.86	-45.84
503.21	-50.04
503.56	-52.30
503.91	-53.59
504.25	-59.72
504.60	-52.62
504.95	-41.32
505.30	-4.84
505.64	5.17
505.99	17.11
506.34	23.89
506.68	35.51
507.03	34.87
507.38	41.65
507.72	22.92
508.07	13.56
508.42	19.37
508.76	6.78
509.11	2.58
509.46	15.17
509.80	2.58
510.15	-8.72
510.50	-8.39
510.84	-13.24
511.19	-7.10
511.54	-12.91
511.88	-33.90
512.23	-28.73
512.57	-9.68
512.92	-10.33
513.27	-21.95
513.61	-10.98
513.96	-9.36
514.31	4.20
514.65	-4.20
515.00	-20.66
515.34	-5.17
515.69	6.13
516.03	-12.59
516.38	-25.18
516.73	-32.28
517.07	-38.42
517.42	-22.60
517.76	-35.51
518.11	-39.39
518.45	-30.02
518.80	-10.65
519.15	-1.29
519.49	19.69
519.84	28.09
520.18	20.98
520.53	9.04
520.87	-12.27
521.22	-24.54
521.56	-10.98
521.91	-22.92
522.25	-32.93
522.60	-8.72
522.94	5.49
523.29	15.50
523.63	25.83
523.98	5.81
524.32	4.52
524.67	-0.32
525.01	-16.46
525.36	-17.76
525.70	-0.65
526.05	-0.97
526.39	0.32
526.74	19.69
527.08	22.60
527.43	13.56
527.77	5.17
528.12	14.53
528.46	14.85
528.80	15.17
529.15	-5.49
529.49	1.94
529.84	3.55
530.18	4.52
530.53	-17.76
530.87	-20.66
531.21	-20.66
531.56	-24.21
531.90	-31.31
532.25	-24.54
532.59	-20.98
532.93	-9.36
533.28	-8.39
533.62	3.55
533.97	0.65
534.31	-0.32
534.65	6.13
535.00	19.69
535.34	16.46
535.68	20.66
536.03	11.94
536.37	25.18
536.71	31.31
537.06	25.50
537.40	0.32
537.74	-3.55
538.09	-17.43
538.43	-31.31
538.77	-22.92
539.12	-22.92
539.46	-17.76
539.80	-1.94
540.15	-1.94
540.49	21.31
540.83	40.68
541.18	64.57
541.52	71.02
541.86	86.20
542.20	72.31
542.55	72.64
542.89	68.12
543.23	65.54
543.58	27.44
543.92	18.72
544.26	13.24
544.60	15.17
544.95	31.96
545.29	11.62
545.63	7.10
545.97	5.81
546.32	-2.91
546.66	-14.20
547.00	4.20
547.34	-8.72
547.68	7.75
548.03	5.81
548.37	-0.32
548.71	5.17
549.05	-6.46
549.39	-27.12
549.74	-45.52
550.08	-49.72
550.42	-48.42
550.76	-39.06
551.10	-51.65
551.45	-30.35
551.79	-8.39
552.13	2.91
552.47	-3.23
552.81	2.91
553.15	11.62
553.50	25.83
553.84	14.85
554.18	12.59
554.52	20.66
554.86	40.35
555.20	40.68
555.54	33.25
555.88	32.28
556.23	21.95
556.57	15.50
556.91	3.55
557.25	-3.55
557.59	-13.56
557.93	-9.68
558.27	-8.39
558.61	-6.78
558.95	-4.20
559.29	16.46
559.64	5.49
559.98	-22.28
560.32	-22.28
560.66	-36.48
561.00	-22.60
561.34	-45.84
561.68	-54.24
562.02	-55.85
562.36	-22.60
562.70	-21.95
563.04	1.61
563.38	-0.65
563.72	11.62
564.06	15.50
564.40	26.47
564.74	29.38
565.08	5.49
565.42	0.00
565.76	0.97
566.10	12.27
566.44	-0.00
566.78	-17.11
567.12	-19.37
567.46	5.49
567.80	8.07
568.14	9.68
568.48	6.13
568.82	9.04
569.16	-0.65
569.50	6.46
569.84	-8.72
570.18	8.07
570.52	16.79
570.86	18.08
571.20	24.54
571.54	35.83
571.88	30.99
572.22	33.25
572.55	12.59
572.89	-1.94
573.23	3.87
573.57	-8.07
573.91	-10.33
574.25	-26.15
574.59	-26.47
574.93	-39.06
575.27	-40.35
575.61	-57.14
575.94	-47.46
576.28	-30.02
576.62	-20.66
576.96	-13.88
577.30	0.65
577.64	8.72
577.98	13.56
578.32	25.50
578.65	27.12
578.99	25.83
579.33	25.83
579.67	22.28
580.01	25.50
580.35	25.83
580.68	5.49
581.02	-0.32
581.36	0.00
581.70	-13.24
582.04	-15.50
582.37	-19.37
582.71	-10.01
583.05	1.94
583.39	-6.13
583.73	-2.91
584.06	2.91
584.40	2.26
584.74	3.55
585.08	-21.95
585.41	-20.98
585.75	-8.72
586.09	-3.87
586.43	0.97
586.76	-7.75
587.10	-9.04
587.44	9.68
587.78	-2.58
588.11	-15.82
588.45	-35.19
588.79	-49.07
589.13	-33.25
589.46	-35.19
589.80	-40.68
590.14	-34.87
590.47	-32.61
590.81	-27.12
591.15	-8.07
591.48	-14.85
591.82	-11.62
592.16	-13.88
592.50	-16.14
592.83	-9.04
593.17	-0.32
593.51	-14.85
593.84	-10.01
594.18	3.23
594.51	13.24
594.85	27.44
595.19	24.21
595.52	34.87
595.86	40.35
596.20	44.23
596.53	43.58
596.87	46.81
597.21	41.65
597.54	53.91
597.88	39.39
598.21	49.39
598.55	44.55
598.89	36.16
599.22	31.96
599.56	23.57
599.89	22.28
600.23	25.18
600.57	20.02
600.90	21.31
601.24	21.31
601.57	11.62
601.91	6.78
602.24	-2.26
602.58	8.07
602.91	8.39
603.25	-1.94
603.58	-10.98
603.92	-2.58
604.26	14.85
604.59	7.10
604.93	-12.27
605.26	-7.10
605.60	9.04
605.93	10.01
606.27	1.94
606.60	-5.81
606.94	0.65
607.27	16.46
607.61	13.56
607.94	10.01
608.28	15.17
608.61	19.37
608.95	32.93
609.28	36.48
609.61	30.35
609.95	43.26
610.28	34.87
610.62	24.54
610.95	24.54
611.29	9.04
611.62	-7.75
611.96	-25.18
612.29	-32.93
612.62	-20.34
612.96	-14.20
613.29	-0.32
613.63	-7.43
613.96	4.84
614.29	27.12
614.63	25.18
614.96	7.75
615.30	12.27
615.63	10.01
615.96	19.05
616.30	12.59
616.63	18.08
616.97	33.57
617.30	39.39
617.63	41.32
617.97	29.38
618.30	19.05
618.63	15.17
618.97	-6.78
619.30	-23.57
619.63	-20.66
619.97	-25.83
620.30	-25.18
620.63	-19.37
620.97	-4.84
621.30	11.30
621.63	-5.49
621.97	10.98
622.30	25.50
622.63	33.90
622.96	39.06
623.30	35.51
623.63	34.22
623.96	54.56
624.30	39.39
624.63	27.12
624.96	8.07
625.29	-9.68
625.63	-14.85
625.96	0.65
626.29	-3.87
626.62	-5.17
626.96	-8.72
627.29	10.01
627.62	30.99
627.95	31.31
628.28	23.89
628.62	31.31
628.95	26.15
629.28	22.60
629.61	17.43
629.95	15.17
630.28	18.08
630.61	6.78
630.94	-3.55
631.27	-19.05
631.60	-15.82
631.94	-11.62
632.27	-12.91
632.60	1.29
632.93	-0.65
633.26	-5.49
633.59	17.76
633.93	17.11
634.26	11.30
634.59	4.84
634.92	-10.98
635.25	-8.39
635.58	-21.95
635.91	-26.80
636.24	-33.57
636.58	-24.54
636.91	-30.67
637.24	-37.13
637.57	-49.39
637.90	-32.61
638.23	-30.02
638.56	-36.48
638.89	-50.36
639.22	-51.33
639.55	-53.59
639.88	-42.94
640.22	-44.55
640.55	-44.87
640.88	-20.02
641.21	-27.44
641.54	-20.02
641.87	-3.87
642.20	-0.97
642.53	-8.39
642.86	-17.11
643.19	-19.69
643.52	-11.30
643.85	-11.94
644.18	-4.52
644.51	-8.39
644.84	1.29
645.17	3.87
645.50	-12.91
645.83	-7.75
646.16	2.26
646.49	-10.65
646.82	-11.30
647.15	-3.87
647.48	-0.97
647.81	1.29
648.14	7.75
648.47	2.26
648.80	3.23
649.13	4.20
649.46	-2.26
649.79	19.37
650.11	31.96
650.44	42.94
650.77	38.42
651.10	32.28
651.43	36.48
651.76	24.86
652.09	-13.56
652.42	-17.11
652.75	-33.57
653.08	-25.50
653.41	-24.21
653.73	-30.35
654.06	-11.94
654.39	0.97
654.72	7.10
655.05	16.14
655.38	20.66
655.71	27.76
656.04	41.00
656.36	45.20
656.69	49.07
657.02	42.29
657.35	15.17
657.68	6.13
658.01	-2.58
658.33	6.46
658.66	-13.24
658.99	-14.20
659.32	-15.17
659.65	9.04
659.97	9.36
660.30	7.75
660.63	-14.20
660.96	-2.91
661.29	5.17
661.61	10.98
661.94	10.98
662.27	18.40
662.60	30.02
662.92	28.41
663.25	13.88
663.58	11.62
663.91	-2.26
664.23	-8.72
664.56	-13.24
664.89	-22.92
665.22	-18.40
665.54	0.65
665.87	4.20
666.20	-3.55
666.53	-6.13
666.85	-6.13
667.18	3.23
667.51	-6.13
667.83	-36.48
668.16	-36.16
668.49	-19.37
668.81	-19.05
669.14	-28.73
669.47	-15.17
669.79	-8.07
670.12	-1.61
670.45	-23.24
670.77	-35.83
671.10	-32.28
671.43	-26.80
671.75	-51.33
672.08	-51.01
672.41	-34.22
672.73	-30.99
673.06	-19.05
673.39	-14.85
673.71	-9.36
674.04	-1.94
674.36	-5.17
674.69	2.58
675.02	14.85
675.34	7.75
675.67	8.07
675.99	12.59
676.32	28.09
676.64	33.90
676.97	37.77
677.30	50.04
677.62	49.07
677.95	50.36
678.27	38.09
678.60	26.15
678.92	32.28
679.25	14.85
679.57	5.49
679.90	10.01
680.22	17.11
680.55	15.82
680.88	0.32
681.20	-14.85
681.53	-11.30
681.85	-14.20
682.18	-11.62
682.50	-36.16
682.83	-24.21
683.15	-17.43
683.47	-10.01
683.80	-11.62
684.12	-16.14
684.45	-28.73
684.77	-12.59
685.10	-33.25
685.42	-41.65
685.75	-34.87
686.07	-33.57
686.40	-31.96
686.72	-20.02
687.04	-22.92
687.37	-4.84
687.69	28.41
688.02	13.56
688.34	22.28
688.67	8.39
688.99	2.58
689.31	-6.78
689.64	1.61
689.96	-2.26
690.28	26.80
690.61	30.99
690.93	67.79
691.26	74.25
691.58	69.73
691.90	53.91
692.23	35.51
692.55	19.37
692.87	12.27
693.20	-8.39
693.52	-16.79
693.84	-10.01
694.17	-8.07
694.49	-1.61
694.81	-10.01
695.14	-14.53
695.46	-33.25
695.78	-28.41
696.11	-29.05
696.43	-20.34
696.75	-23.24
697.08	-26.15
697.40	-37.77
697.72	-22.60
698.04	-22.60
698.37	-22.92
698.69	-23.57
699.01	-22.60
699.33	-14.53
699.66	-7.43
699.98	4.84
700.30	6.46
700.62	14.20
700.95	5.17
701.27	9.04
701.59	20.34
701.91	26.15
702.24	-1.29
702.56	14.53
702.88	25.50
703.20	35.51
703.52	20.98
703.85	-7.75
704.17	0.32
704.49	24.54
704.81	3.55
705.13	-3.23
705.45	-10.33
705.78	-5.49
706.10	7.10
706.42	-7.10
706.74	-12.59
707.06	-7.10
707.38	-12.91
707.71	-17.11
708.03	-14.20
708.35	-11.30
708.67	-1.61
708.99	-23.24
709.31	-33.25
709.63	-33.25
709.95	-32.28
710.27	-30.99
710.60	-34.54
710.92	-50.04
711.24	-36.16
711.56	-26.15
711.88	-31.64
712.20	-34.87
712.52	-41.00
712.84	-27.76
713.16	-14.53
713.48	-1.29
713.80	-0.97
714.12	-3.55
714.44	9.68
714.76	42.94
715.08	42.94
715.40	46.17
715.72	37.13
716.04	18.72
716.36	23.89
716.68	19.05
717.00	-4.84
717.32	-17.76
717.64	-23.24
717.96	-20.02
718.28	8.07
718.60	10.01
718.92	11.94
719.24	6.46
719.56	10.01
719.88	3.55
720.20	-4.20
720.52	-16.14
720.84	-22.92
721.16	-11.62
721.48	3.55
721.80	5.17
722.12	18.08
722.44	36.16
722.76	43.26
723.08	42.61
723.40	16.14
723.72	-7.10
724.03	-11.62
724.35	-8.72
724.67	-15.50
724.99	-7.43
725.31	-4.52
725.63	10.33
725.95	6.13
726.27	-4.84
726.58	-16.14
726.90	-14.20
727.22	-23.24
727.54	-33.25
727.86	-39.39
728.18	-29.05
728.50	-19.05
728.81	-1.94
729.13	-3.23
729.45	-12.91
729.77	-4.20
730.09	-1.61
730.40	-1.94
730.72	22.60
731.04	-1.94
731.36	0.32
731.68	4.20
731.99	2.58
732.31	-3.87
732.63	0.97
732.95	-19.05
733.27	-3.23
733.58	-9.68
733.90	-6.78
734.22	-3.55
734.54	2.26
734.85	-6.46
735.17	1.94
735.49	-13.24
735.80	-17.43
736.12	-28.73
736.44	-33.25
736.76	-48.10
737.07	-38.09
737.39	-52.94
737.71	-54.24
738.02	-37.13
738.34	-33.57
738.66	-36.48
738.97	-32.28
739.29	-54.24
739.61	-52.62
739.93	-46.17
740.24	-53.59
740.56	-50.04
740.87	-51.98
741.19	-45.20
741.51	-25.50
741.82	-22.92
742.14	-13.24
742.46	-17.43
742.77	-20.34
743.09	0.97
743.41	-2.26
743.72	-0.32
744.04	10.65
744.35	11.30
744.67	4.52
744.99	0.97
745.30	-19.05
745.62	2.91
745.93	-0.65
746.25	-34.22
746.56	-28.09
746.88	-15.17
747.20	2.91
747.51	19.37
747.83	4.52
748.14	4.52
748.46	36.48
748.77	23.89
749.09	18.72
749.40	19.05
749.72	16.14
750.03	26.80
750.35	32.28
750.66	27.44
750.98	51.98
751.29	57.14
751.61	41.65
751.92	41.97
752.24	35.19
752.55	32.93
752.87	22.92
753.18	-22.92
753.50	-31.64
753.81	-20.02
754.13	-36.48
754.44	-36.16
754.76	-23.89
755.07	-7.43
755.38	15.17
755.70	7.10
756.01	-7.75
756.33	8.39
756.64	15.82
756.95	-8.39
757.27	-10.01
757.58	-8.07
757.90	19.37
758.21	31.64
758.52	39.39
758.84	21.63
759.15	32.61
759.47	41.97
759.78	37.13
760.09	25.50
760.41	21.63
760.72	22.92
761.03	30.02
761.35	16.46
761.66	-12.27
761.97	-19.69
762.29	-19.69
762.60	-10.33
762.91	-17.11
763.23	-8.39
763.54	8.07
763.85	36.80
764.17	45.52
764.48	45.84
764.79	29.70
765.10	16.46
765.42	9.04
765.73	13.24
766.04	0.65
766.36	-1.29
766.67	-19.05
766.98	-12.27
767.29	-1.29
767.61	6.13
767.92	1.29
768.23	-4.84
768.54	-7.75
768.86	-3.87
769.17	18.40
769.48	10.65
769.79	11.94
770.10	20.34
770.42	14.85
770.73	18.72
771.04	27.76
771.35	10.65
771.66	24.21
771.98	11.30
772.29	0.97
772.60	-8.72
772.91	2.26
773.22	-3.87
773.53	-0.65
773.85	-5.81
774.16	-8.07
774.47	-10.33
774.78	8.07
775.09	13.88
775.40	8.39
775.71	7.10
776.02	4.52
776.34	14.53
776.65	16.14
776.96	11.62
777.27	-0.97
777.58	13.56
777.89	5.81
778.20	-3.23
778.51	-19.37
778.82	-23.57
779.13	-15.50
779.44	-4.20
779.75	1.29
780.06	0.00
780.38	-3.87
780.69	6.13
781.00	6.46
781.31	10.33
781.62	8.07
781.93	-7.43
782.24	4.20
782.55	21.63
782.86	37.77
783.17	48.10
783.48	25.50
783.79	22.92
784.10	30.99
784.41	15.82
784.72	6.78
785.03	-9.04
785.34	-17.11
785.65	-1.29
785.96	-9.36
786.27	-12.91
786.57	-5.49
786.88	-2.58
787.19	-5.17
787.50	-19.37
787.81	-31.31
788.12	-29.70
788.43	-21.95
788.74	-15.17
789.05	-13.56
789.36	-7.43
789.67	9.36
789.98	25.83
790.29	28.41
790.59	14.85
790.90	3.87
791.21	1.94
791.52	8.72
791.83	-1.61
792.14	-1.29
792.45	0.97
792.75	13.56
793.06	7.10
793.37	14.20
793.68	-10.01
793.99	-5.81
794.30	-17.43
794.60	-12.91
794.91	-13.56
795.22	10.33
795.53	-3.87
795.84	15.17
796.15	18.40
796.45	21.63
796.76	15.50
797.07	1.61
797.38	-19.05
797.68	-10.33
797.99	-18.08
798.30	-4.84
798.61	-3.23
798.91	-16.14
799.22	4.20
799.53	17.76
799.84	15.50
800.14	25.18
800.45	19.69
800.76	31.64
801.07	42.29
801.37	24.86
801.68	0.65
801.99	-9.36
802.29	-4.52
802.60	-12.91
802.91	-25.50
803.22	-39.06
803.52	-33.57
803.83	-14.53
804.14	1.61
804.44	-2.26
804.75	2.91
805.06	8.39
805.36	18.40
805.67	4.84
805.97	4.20
806.28	-0.32
806.59	5.17
806.89	-16.14
807.20	-28.09
807.51	-29.05
807.81	-10.98
808.12	-7.10
808.42	-7.10
808.73	-23.24
809.04	-5.17
809.34	10.33
809.65	10.01
809.95	7.10
810.26	13.56
810.56	8.72
810.87	6.46
811.18	16.14
811.48	9.68
811.79	13.88
812.09	26.80
812.40	21.31
812.70	18.72
813.01	14.85
813.31	3.87
813.62	5.49
813.92	10.65
814.23	-5.49
814.53	-12.91
814.84	15.17
815.14	9.68
815.45	1.29
815.75	4.52
816.06	10.98
816.36	19.37
816.67	21.63
816.97	-2.91
817.28	14.20
817.58	36.16
817.89	34.22
818.19	17.11
818.49	7.75
818.80	14.53
819.10	12.91
819.41	8.39
819.71	-8.72
820.01	-17.11
820.32	-27.44
820.62	-36.80
820.93	-45.84
821.23	-38.09
821.53	-40.03
821.84	-32.28
822.14	-34.87
822.45	-28.73
822.75	-18.08
823.05	-8.07
823.36	10.33
823.66	11.94
823.96	5.49
824.27	14.85
824.57	23.24
824.87	26.15
825.18	20.34
825.48	10.65
825.78	20.98
826.09	27.44
826.39	32.28
826.69	27.76
827.00	16.79
827.30	25.50
827.60	16.79
827.90	19.69
828.21	35.83
828.51	34.22
828.81	34.54
829.11	46.81
829.42	31.96
829.72	21.95
830.02	9.04
830.32	-5.81
830.63	-7.10
830.93	-0.65
831.23	-19.37
831.53	-13.56
831.84	-6.78
832.14	9.36
832.44	10.65
832.74	2.26
833.04	-1.29
833.35	6.46
833.65	11.62
833.95	15.82
834.25	0.97
834.55	-1.29
834.85	16.14
835.16	33.90
835.46	52.94
835.76	51.98
836.06	42.29
836.36	42.29
836.66	48.75
836.96	25.83
837.26	6.78
837.57	0.00
837.87	-15.50
838.17	-16.46
838.47	-18.72
838.77	-29.70
839.07	-22.28
839.37	-14.20
839.67	-10.98
839.97	-5.81
840.27	-1.61
840.57	-5.49
840.88	-2.91
841.18	11.94
841.48	7.75
841.78	-0.65
842.08	4.52
842.38	11.30
842.68	30.99
842.98	29.05
843.28	15.82
843.58	14.85
843.88	16.79
844.18	8.07
844.48	11.94
844.78	8.72
845.08	28.41
845.38	40.68
845.68	42.29
845.98	40.68
846.28	22.60
846.58	4.84
846.88	-10.01
847.18	-32.28
847.48	-40.03
847.78	-43.91
848.07	-39.06
848.37	-21.31
848.67	-6.78
848.97	-1.29
849.27	5.17
849.57	13.24
849.87	18.08
850.17	24.21
850.47	30.99
850.77	21.63
851.07	15.82
851.36	7.10
851.66	-9.36
851.96	-14.20
852.26	-33.57
852.56	-26.47
852.86	-12.59
853.16	-10.65
853.45	-18.40
853.75	-1.94
854.05	-5.81
854.35	1.61
854.65	-13.88
854.95	-29.05
855.24	-19.69
855.54	3.23
855.84	-4.20
856.14	-7.10
856.44	1.29
856.73	14.20
857.03	26.80
857.33	39.71
857.63	29.70
857.93	27.44
858.22	33.90
858.52	31.96
858.82	30.67
859.12	43.58
859.41	25.83
859.71	39.71
860.01	31.96
860.30	50.04
860.60	54.56
860.90	50.04
861.20	25.83
861.49	19.05
861.79	8.07
862.09	11.94
862.38	-16.14
862.68	-22.28
862.98	-10.01
863.27	-0.65
863.57	15.82
863.87	14.20
864.16	16.79
864.46	34.54
864.76	34.22
865.05	30.02
865.35	17.11
865.65	15.17
865.94	19.37
866.24	-2.26
866.54	-15.17
866.83	-7.43
867.13	-1.94
867.42	4.52
867.72	-7.10
868.02	-19.37
868.31	-0.00
868.61	10.98
868.90	4.20
869.20	9.04
869.49	20.34
869.79	26.47
870.08	34.22
870.38	44.23
870.68	41.32
870.97	44.55
871.27	27.44
871.56	6.46
871.86	6.13
872.15	13.88
872.45	10.98
872.74	18.40
873.04	19.69
873.33	23.57
873.63	21.63
873.92	13.88
874.22	3.55
874.51	5.49
874.81	-1.61
875.10	-11.62
875.40	-16.79
875.69	-1.94
875.98	7.43
876.28	17.43
876.57	12.27
876.87	6.13
877.16	6.13
877.46	16.79
877.75	15.50
878.04	6.78
878.34	-7.75
878.63	-6.78
878.93	7.43
879.22	-3.23
879.51	-21.63
879.81	-16.14
880.10	-26.47
880.40	-40.35
880.69	-49.39
880.98	-60.37
881.28	-45.84
881.57	-35.83
881.86	-36.80
882.16	-23.24
882.45	-4.84
882.74	-0.65
883.04	6.13
883.33	10.01
883.62	2.26
883.92	38.42
884.21	40.68
884.50	-61.02
>>>>>End Processed Spectral Data<<<<<
