SpectraSuite Data File
++++++++++++++++++++++++++++++++++++
Date: Fri Feb 20 12:10:24 EST 2015
User: Administrator
Dark Spectrum Present: Yes
Reference Spectrum Present: No
Number of Sampled Component Spectra: 1
Spectrometers: SB2+H01071
Integration Time (usec): 5000000 (SB2+H01071)
Spectra Averaged: 1 (SB2+H01071)
Boxcar Smoothing: 3 (SB2+H01071)
Correct for Electrical Dark: No (SB2+H01071)
Strobe/Lamp Enabled: Yes (SB2+H01071)
Correct for Detector Non-linearity: No (SB2+H01071)
Correct for Stray Light: No (SB2+H01071)
Number of Pixels in Processed Spectrum: 2048
>>>>>Begin Processed Spectral Data<<<<<
191.06	-22.60
191.43	-22.60
191.81	-22.60
192.19	-21.95
192.56	-9.04
192.94	-2.26
193.31	0.00
193.69	5.49
194.07	-0.32
194.44	15.82
194.82	21.63
195.19	9.36
195.57	-7.43
195.95	-10.65
196.32	-15.50
196.70	-13.88
197.07	-24.86
197.45	-39.71
197.83	-22.28
198.20	-11.62
198.58	-13.56
198.95	-8.39
199.33	-9.68
199.70	-18.08
200.08	-17.43
200.46	-23.24
200.83	-25.83
201.21	-12.27
201.58	-18.40
201.96	-9.36
202.33	4.52
202.71	11.94
203.09	1.29
203.46	1.61
203.84	-4.84
204.21	5.17
204.59	3.23
204.96	10.01
205.34	11.62
205.71	20.02
206.09	31.96
206.46	26.15
206.84	26.80
207.21	26.15
207.59	24.86
207.96	18.72
208.34	-0.65
208.71	-6.46
209.09	-9.68
209.46	-29.70
209.84	-18.72
210.21	-26.80
210.59	-9.36
210.96	1.94
211.34	-6.13
211.71	-1.94
212.09	20.98
212.46	8.39
212.84	6.46
213.21	-12.59
213.59	-4.20
213.96	2.58
214.34	-4.20
214.71	-5.17
215.08	1.29
215.46	18.72
215.83	16.14
216.21	14.20
216.58	16.79
216.96	27.12
217.33	29.05
217.70	20.02
218.08	-5.81
218.45	-1.61
218.83	-13.56
219.20	-26.80
219.58	-29.05
219.95	-53.27
220.32	-35.51
220.70	-18.08
221.07	-17.43
221.45	-15.50
221.82	2.91
222.19	-2.26
222.57	0.97
222.94	-15.17
223.32	-33.90
223.69	-25.50
224.06	-19.05
224.44	-27.76
224.81	-28.09
225.18	-24.54
225.56	-9.68
225.93	4.84
226.31	7.43
226.68	14.20
227.05	11.94
227.43	20.66
227.80	26.15
228.17	28.73
228.55	27.44
228.92	11.62
229.29	3.23
229.67	8.07
230.04	-2.26
230.41	9.68
230.79	9.04
231.16	6.46
231.53	15.50
231.91	2.91
232.28	2.26
232.65	19.05
233.03	5.49
233.40	16.79
233.77	11.94
234.15	19.05
234.52	41.32
234.89	37.77
235.26	31.31
235.64	32.28
236.01	4.84
236.38	20.34
236.76	13.88
237.13	-6.78
237.50	-12.59
237.87	-14.53
238.25	8.72
238.62	20.34
238.99	16.46
239.36	21.63
239.74	38.74
240.11	48.42
240.48	53.27
240.85	42.94
241.23	36.48
241.60	21.63
241.97	20.98
242.34	2.58
242.72	-4.84
243.09	-22.92
243.46	-31.64
243.83	-29.05
244.20	-13.56
244.58	-23.89
244.95	-13.88
245.32	-10.65
245.69	-4.20
246.07	-5.81
246.44	-19.05
246.81	-13.88
247.18	-11.62
247.55	-4.20
247.92	-11.62
248.30	-0.32
248.67	0.65
249.04	-3.55
249.41	1.61
249.78	3.23
250.16	29.05
250.53	47.46
250.90	33.90
251.27	34.22
251.64	37.13
252.01	23.89
252.39	19.69
252.76	-11.94
253.13	-26.80
253.50	-20.02
253.87	-15.50
254.24	-12.91
254.61	-12.59
254.98	-35.19
255.36	-36.16
255.73	-17.76
256.10	-22.92
256.47	-30.02
256.84	-18.40
257.21	-25.18
257.58	0.32
257.95	6.46
258.33	-5.17
258.70	3.55
259.07	0.97
259.44	3.55
259.81	14.85
260.18	6.13
260.55	-3.23
260.92	-9.04
261.29	-5.17
261.66	-11.30
262.03	-16.46
262.40	-24.54
262.77	-13.24
263.15	-3.23
263.52	-11.30
263.89	-21.63
264.26	-28.73
264.63	-36.16
265.00	-51.33
265.37	-42.94
265.74	-49.39
266.11	-32.93
266.48	-17.76
266.85	2.91
267.22	-4.20
267.59	10.33
267.96	11.62
268.33	10.65
268.70	1.61
269.07	2.26
269.44	4.84
269.81	19.69
270.18	25.50
270.55	5.49
270.92	2.91
271.29	18.40
271.66	6.13
272.03	3.55
272.40	-0.65
272.77	-14.53
273.14	-1.61
273.51	8.07
273.88	-16.14
274.25	-12.91
274.62	-10.98
274.99	-10.33
275.36	13.88
275.73	14.85
276.10	14.53
276.47	30.02
276.84	39.39
277.21	31.31
277.58	26.15
277.94	21.63
278.31	20.98
278.68	19.37
279.05	7.75
279.42	-0.65
279.79	8.39
280.16	11.94
280.53	-4.20
280.90	-25.83
281.27	-26.47
281.64	-0.65
282.01	-1.29
282.37	-10.33
282.74	-6.46
283.11	-7.43
283.48	6.13
283.85	-6.13
284.22	-17.76
284.59	-19.05
284.96	-11.62
285.33	-6.78
285.69	-7.10
286.06	-6.78
286.43	0.00
286.80	14.53
287.17	27.76
287.54	35.19
287.91	31.31
288.27	54.88
288.64	61.98
289.01	83.29
289.38	59.08
289.75	47.46
290.12	24.86
290.48	6.13
290.85	-19.37
291.22	-37.77
291.59	-60.37
291.96	-65.54
292.33	-78.77
292.69	-71.99
293.06	-42.61
293.43	-35.51
293.80	-27.76
294.17	-24.21
294.53	-11.30
294.90	-7.75
295.27	10.98
295.64	11.62
296.01	24.54
296.37	38.74
296.74	46.17
297.11	49.07
297.48	53.91
297.84	41.00
298.21	23.57
298.58	13.56
298.95	-3.87
299.31	-20.66
299.68	-14.20
300.05	-18.72
300.42	-26.80
300.78	-31.96
301.15	-24.86
301.52	-24.21
301.89	-0.97
302.25	-18.08
302.62	-15.17
302.99	-13.24
303.35	-18.40
303.72	-24.21
304.09	-33.57
304.46	-53.91
304.82	-51.33
305.19	-47.78
305.56	-53.59
305.92	-37.13
306.29	-30.67
306.66	-18.40
307.02	-25.50
307.39	-21.95
307.76	0.32
308.12	26.80
308.49	21.31
308.86	8.72
309.23	13.88
309.59	37.45
309.96	42.61
310.32	29.05
310.69	-5.17
311.06	1.94
311.42	-2.58
311.79	-16.79
312.16	-27.12
312.52	-31.31
312.89	-34.54
313.26	-31.64
313.62	-38.09
313.99	-26.15
314.35	-23.24
314.72	-19.69
315.09	-12.59
315.45	-12.59
315.82	5.49
316.19	7.43
316.55	4.84
316.92	9.36
317.28	0.32
317.65	-4.20
318.02	-22.28
318.38	-29.05
318.75	-35.51
319.11	-39.06
319.48	-33.90
319.84	-8.39
320.21	-30.35
320.58	-6.78
320.94	14.20
321.31	26.15
321.67	31.96
322.04	20.34
322.40	10.01
322.77	32.28
323.13	22.92
323.50	5.17
323.86	0.97
324.23	11.30
324.60	34.87
324.96	29.70
325.33	-1.94
325.69	-4.52
326.06	1.94
326.42	-8.39
326.79	-28.09
327.15	-49.07
327.52	-59.08
327.88	-36.16
328.25	-29.38
328.61	-36.16
328.98	-34.22
329.34	-33.57
329.71	-41.65
330.07	-40.68
330.44	-38.09
330.80	-44.55
331.16	-50.68
331.53	-39.06
331.89	-21.95
332.26	-0.97
332.62	5.17
332.99	8.72
333.35	20.02
333.72	39.06
334.08	38.42
334.45	29.38
334.81	32.61
335.17	34.22
335.54	36.16
335.90	25.50
336.27	11.94
336.63	4.20
337.00	6.46
337.36	7.43
337.72	-2.26
338.09	-10.33
338.45	2.91
338.82	6.46
339.18	9.04
339.54	8.72
339.91	6.46
340.27	11.94
340.63	9.36
341.00	6.46
341.36	17.11
341.73	5.17
342.09	11.94
342.45	12.27
342.82	26.80
343.18	39.06
343.54	60.05
343.91	47.46
344.27	59.40
344.63	44.23
345.00	41.65
345.36	32.28
345.72	29.05
346.09	-10.01
346.45	-4.52
346.81	2.58
347.18	27.76
347.54	22.60
347.90	17.11
348.27	12.59
348.63	12.59
348.99	3.23
349.36	5.81
349.72	-4.84
350.08	1.29
350.45	-12.27
350.81	-2.26
351.17	7.10
351.53	8.07
351.90	6.13
352.26	-9.04
352.62	1.29
352.98	10.98
353.35	10.98
353.71	7.43
354.07	6.13
354.44	-12.59
354.80	-5.49
355.16	-17.43
355.52	-22.92
355.88	-30.67
356.25	-27.44
356.61	-32.61
356.97	-28.41
357.33	-39.71
357.70	-42.29
358.06	-30.67
358.42	-36.80
358.78	-56.17
359.15	-50.04
359.51	-41.65
359.87	-41.65
360.23	-40.68
360.59	-39.71
360.95	-34.87
361.32	-12.59
361.68	-3.55
362.04	-24.54
362.40	-16.46
362.76	-17.43
363.13	-14.53
363.49	-2.91
363.85	1.29
364.21	-10.33
364.57	15.50
364.93	30.35
365.30	30.35
365.66	30.67
366.02	32.28
366.38	18.40
366.74	48.42
367.10	47.78
367.46	39.06
367.83	24.86
368.19	38.09
368.55	25.83
368.91	27.12
369.27	-9.68
369.63	-3.87
369.99	-25.18
370.35	-12.91
370.71	-27.12
371.08	-14.85
371.44	-7.43
371.80	23.57
372.16	19.37
372.52	24.21
372.88	28.09
373.24	19.37
373.60	18.08
373.96	13.88
374.32	0.00
374.68	-13.88
375.04	1.61
375.40	-2.26
375.76	7.75
376.13	6.46
376.49	14.20
376.85	10.33
377.21	24.21
377.57	13.56
377.93	9.68
378.29	12.91
378.65	8.39
379.01	11.94
379.37	11.62
379.73	0.32
380.09	12.27
380.45	21.31
380.81	1.61
381.17	-9.68
381.53	-23.57
381.89	-28.41
382.25	-23.89
382.61	-34.22
382.97	-42.61
383.33	-51.01
383.69	-35.19
384.05	-22.28
384.41	2.58
384.77	21.31
385.13	50.68
385.49	47.78
385.85	78.77
386.20	72.64
386.56	49.39
386.92	19.05
387.28	-2.91
387.64	-25.18
388.00	-23.89
388.36	-41.32
388.72	-37.45
389.08	-38.42
389.44	-16.79
389.80	-5.17
390.16	-5.17
390.52	1.29
390.88	8.39
391.23	10.33
391.59	30.35
391.95	18.08
392.31	-6.46
392.67	-26.80
393.03	-3.55
393.39	2.58
393.75	9.04
394.11	17.11
394.46	29.70
394.82	53.91
395.18	78.13
395.54	66.18
395.90	64.24
396.26	49.39
396.62	27.76
396.97	24.86
397.33	13.88
397.69	0.00
398.05	-16.14
398.41	-20.02
398.77	-21.95
399.12	-8.72
399.48	-19.05
399.84	-15.50
400.20	-4.84
400.56	8.07
400.91	-0.32
401.27	-13.88
401.63	-16.14
401.99	-10.98
402.35	6.46
402.70	-5.49
403.06	-20.66
403.42	-19.37
403.78	-0.97
404.14	-0.97
404.49	-10.01
404.85	-26.15
405.21	-22.28
405.57	-4.52
405.92	1.94
406.28	-1.94
406.64	-8.39
407.00	-12.27
407.35	-12.59
407.71	-2.91
408.07	-6.78
408.43	-2.58
408.78	11.30
409.14	26.80
409.50	38.42
409.85	37.13
410.21	41.97
410.57	38.74
410.93	34.22
411.28	16.79
411.64	8.07
412.00	10.65
412.35	15.82
412.71	-1.29
413.07	8.72
413.42	0.65
413.78	7.10
414.14	13.24
414.49	0.00
414.85	13.88
415.21	29.05
415.56	11.30
415.92	37.13
416.28	39.71
416.63	35.51
416.99	51.65
417.35	38.09
417.70	19.69
418.06	31.31
418.42	21.31
418.77	23.89
419.13	30.02
419.48	30.02
419.84	22.92
420.20	35.19
420.55	26.15
420.91	22.28
421.27	30.99
421.62	45.52
421.98	40.35
422.33	47.78
422.69	61.66
423.05	57.79
423.40	57.14
423.76	35.83
424.11	17.11
424.47	22.92
424.82	44.23
425.18	19.37
425.54	28.73
425.89	18.72
426.25	36.16
426.60	15.17
426.96	12.91
427.31	-16.14
427.67	-7.10
428.02	-0.65
428.38	6.46
428.73	-3.55
429.09	9.04
429.44	-1.94
429.80	4.52
430.15	15.17
430.51	13.24
430.86	13.56
431.22	5.81
431.57	5.81
431.93	5.49
432.28	10.65
432.64	-6.46
432.99	5.17
433.35	14.20
433.70	10.01
434.06	21.63
434.41	19.37
434.77	22.28
435.12	40.03
435.48	4.20
435.83	4.84
436.19	37.45
436.54	29.38
436.89	40.68
437.25	30.67
437.60	9.36
437.96	31.31
438.31	48.42
438.67	16.79
439.02	21.63
439.37	6.78
439.73	-8.07
440.08	14.53
440.44	2.58
440.79	-24.86
441.15	-27.44
441.50	-23.24
441.85	-14.53
442.21	9.04
442.56	0.32
442.91	4.84
443.27	8.39
443.62	23.24
443.98	14.53
444.33	15.50
444.68	6.13
445.04	9.04
445.39	26.80
445.74	8.72
446.10	1.29
446.45	-16.14
446.80	4.84
447.16	8.72
447.51	-4.52
447.86	-11.62
448.22	10.01
448.57	11.30
448.92	9.68
449.28	-13.88
449.63	-31.31
449.98	-25.83
450.34	-29.05
450.69	-30.02
451.04	-30.02
451.40	-10.01
451.75	-9.68
452.10	10.01
452.45	18.72
452.81	29.70
453.16	26.47
453.51	40.68
453.86	42.29
454.22	30.99
454.57	16.46
454.92	7.43
455.27	-13.56
455.63	-13.56
455.98	-18.40
456.33	-24.86
456.68	-17.11
457.04	-8.07
457.39	-9.68
457.74	3.87
458.09	-10.01
458.45	-11.62
458.80	-24.21
459.15	-13.24
459.50	-19.69
459.85	-37.13
460.21	-37.77
460.56	-32.93
460.91	-31.96
461.26	-24.54
461.61	-31.64
461.97	-23.57
462.32	-0.65
462.67	-22.28
463.02	-2.58
463.37	-6.78
463.72	5.81
464.08	-6.13
464.43	-28.41
464.78	-24.54
465.13	-8.72
465.48	-25.50
465.83	-20.02
466.18	-32.61
466.54	-13.24
466.89	-3.55
467.24	-8.07
467.59	-11.94
467.94	-9.36
468.29	-10.98
468.64	-0.65
468.99	-5.81
469.34	-3.87
469.70	-15.82
470.05	-14.53
470.40	-23.24
470.75	-30.02
471.10	-40.68
471.45	-52.62
471.80	-53.91
472.15	-42.61
472.50	-43.91
472.85	-25.50
473.20	-28.09
473.55	-10.33
473.90	-6.46
474.25	-8.07
474.61	1.61
474.96	-0.97
475.31	-11.62
475.66	-0.65
476.01	-4.84
476.36	5.49
476.71	21.63
477.06	24.21
477.41	39.06
477.76	44.23
478.11	63.92
478.46	71.02
478.81	61.34
479.16	46.81
479.51	43.58
479.86	29.38
480.21	44.87
480.56	10.01
480.91	-4.52
481.26	1.29
481.61	23.89
481.96	18.72
482.31	11.62
482.66	-27.12
483.00	-13.88
483.35	-8.72
483.70	-8.39
484.05	-40.03
484.40	-53.91
484.75	-57.14
485.10	-47.13
485.45	-59.08
485.80	-70.70
486.15	-50.04
486.50	-40.03
486.85	-41.65
487.20	-27.76
487.55	-15.82
487.89	-19.05
488.24	-4.52
488.59	-12.27
488.94	2.91
489.29	-1.61
489.64	-5.81
489.99	-11.30
490.34	9.68
490.68	5.81
491.03	-11.94
491.38	-17.76
491.73	-2.58
492.08	4.52
492.43	13.24
492.78	5.49
493.12	-1.29
493.47	3.87
493.82	-7.75
494.17	3.55
494.52	13.24
494.87	-5.49
495.21	-13.88
495.56	7.10
495.91	12.59
496.26	26.80
496.61	25.18
496.95	20.98
497.30	41.97
497.65	51.98
498.00	28.73
498.35	30.67
498.69	30.02
499.04	8.39
499.39	-9.68
499.74	-11.94
500.08	-17.11
500.43	-8.07
500.78	-26.47
501.13	-30.35
501.48	-30.02
501.82	-8.72
502.17	-15.82
502.52	-2.26
502.86	-1.29
503.21	9.36
503.56	0.32
503.91	11.62
504.25	-6.46
504.60	2.91
504.95	-8.39
505.30	1.61
505.64	14.85
505.99	29.38
506.34	37.13
506.68	43.91
507.03	37.77
507.38	37.13
507.72	30.35
508.07	20.66
508.42	23.89
508.76	16.46
509.11	10.98
509.46	19.37
509.80	24.54
510.15	26.47
510.50	31.31
510.84	22.60
511.19	27.44
511.54	28.09
511.88	20.34
512.23	22.92
512.57	20.66
512.92	-3.55
513.27	-12.91
513.61	-17.43
513.96	-20.98
514.31	-8.39
514.65	-28.41
515.00	-45.20
515.34	-23.89
515.69	-14.20
516.03	-9.36
516.38	-13.88
516.73	-24.54
517.07	-17.43
517.42	-12.59
517.76	-21.31
518.11	-4.84
518.45	-3.23
518.80	3.55
519.15	1.94
519.49	19.05
519.84	26.80
520.18	19.69
520.53	-6.13
520.87	-10.98
521.22	-16.79
521.56	-18.40
521.91	-29.38
522.25	-27.76
522.60	-4.52
522.94	9.68
523.29	9.04
523.63	18.72
523.98	8.07
524.32	18.72
524.67	12.59
525.01	8.39
525.36	7.10
525.70	0.65
526.05	1.29
526.39	2.58
526.74	-13.56
527.08	-14.20
527.43	-41.32
527.77	-45.52
528.12	-27.12
528.46	-9.36
528.80	-1.29
529.15	8.72
529.49	9.68
529.84	38.09
530.18	26.80
530.53	2.91
530.87	-6.46
531.21	3.23
531.56	10.33
531.90	3.87
532.25	-11.94
532.59	5.81
532.93	16.46
533.28	26.47
533.62	24.21
533.97	9.68
534.31	20.66
534.65	25.83
535.00	29.70
535.34	23.24
535.68	23.24
536.03	5.17
536.37	4.84
536.71	10.33
537.06	19.37
537.40	8.39
537.74	15.82
538.09	-5.49
538.43	-0.97
538.77	-2.26
539.12	0.00
539.46	-6.13
539.80	-0.65
540.15	-7.43
540.49	12.59
540.83	31.96
541.18	93.94
541.52	102.34
541.86	124.29
542.20	125.90
542.55	146.24
542.89	145.60
543.23	143.98
543.58	85.55
543.92	59.08
544.26	34.22
544.60	26.80
544.95	16.46
545.29	-12.59
545.63	-25.83
545.97	-36.16
546.32	-34.22
546.66	-20.66
547.00	-4.52
547.34	-19.37
547.68	-7.75
548.03	-11.94
548.37	-7.75
548.71	3.55
549.05	-22.92
549.39	-32.61
549.74	-30.67
550.08	-25.83
550.42	-17.76
550.76	-3.23
551.10	-26.80
551.45	-3.87
551.79	-3.23
552.13	15.50
552.47	12.91
552.81	13.56
553.15	4.52
553.50	17.11
553.84	13.24
554.18	7.75
554.52	11.30
554.86	20.98
555.20	30.99
555.54	27.76
555.88	28.41
556.23	18.72
556.57	25.83
556.91	-9.36
557.25	-14.20
557.59	-30.99
557.93	-29.38
558.27	-19.37
558.61	-15.17
558.95	-21.63
559.29	-1.94
559.64	-12.27
559.98	-27.12
560.32	-15.82
560.66	-26.15
561.00	-16.79
561.34	-29.38
561.68	-15.82
562.02	-3.23
562.36	27.12
562.70	18.08
563.04	18.40
563.38	10.65
563.72	20.02
564.06	19.37
564.40	23.24
564.74	16.14
565.08	10.98
565.42	12.59
565.76	3.55
566.10	19.05
566.44	7.10
566.78	-10.65
567.12	-9.36
567.46	-16.14
567.80	-1.61
568.14	9.36
568.48	-2.91
568.82	-0.65
569.16	-15.17
569.50	-17.43
569.84	-19.05
570.18	-9.36
570.52	3.23
570.86	13.24
571.20	16.46
571.54	16.46
571.88	9.04
572.22	18.08
572.55	-6.46
572.89	-17.11
573.23	-5.81
573.57	-30.99
573.91	-6.46
574.25	5.17
574.59	-1.29
574.93	4.20
575.27	0.00
575.61	-26.15
575.94	-13.24
576.28	-14.53
576.62	-19.69
576.96	-1.61
577.30	-8.72
577.64	7.43
577.98	3.55
578.32	15.17
578.65	14.85
578.99	13.24
579.33	0.97
579.67	10.65
580.01	0.00
580.35	4.52
580.68	9.04
581.02	8.07
581.36	6.78
581.70	7.43
582.04	0.32
582.37	5.49
582.71	11.62
583.05	-3.23
583.39	-13.56
583.73	-19.05
584.06	-17.76
584.40	0.32
584.74	7.43
585.08	-9.36
585.41	6.13
585.75	11.94
586.09	12.59
586.43	0.32
586.76	-21.31
587.10	-49.72
587.44	-21.95
587.78	-45.84
588.11	-48.75
588.45	-44.55
588.79	-38.09
589.13	-31.31
589.46	-21.31
589.80	-27.44
590.14	-10.01
590.47	-11.94
590.81	-18.08
591.15	-2.91
591.48	-16.46
591.82	-20.02
592.16	-20.66
592.50	-26.80
592.83	-25.18
593.17	-5.49
593.51	-20.34
593.84	-11.94
594.18	-0.97
594.51	9.36
594.85	32.93
595.19	41.32
595.52	36.80
595.86	43.26
596.20	61.34
596.53	67.79
596.87	53.27
597.21	26.15
597.54	30.02
597.88	24.86
598.21	30.99
598.55	25.50
598.89	15.82
599.22	7.75
599.56	11.62
599.89	6.78
600.23	9.36
600.57	4.84
600.90	-6.13
601.24	-2.58
601.57	-0.97
601.91	-4.20
602.24	-7.10
602.58	-4.52
602.91	-16.14
603.25	-2.26
603.58	-7.75
603.92	3.23
604.26	16.14
604.59	8.07
604.93	-1.29
605.26	17.76
605.60	17.11
605.93	20.66
606.27	6.46
606.60	4.84
606.94	22.60
607.27	23.24
607.61	31.96
607.94	26.47
608.28	23.24
608.61	31.31
608.95	35.19
609.28	37.13
609.61	37.77
609.95	30.35
610.28	42.94
610.62	35.51
610.95	36.80
611.29	38.74
611.62	20.34
611.96	7.10
612.29	7.43
612.62	-7.75
612.96	-12.59
613.29	-10.01
613.63	-23.89
613.96	-10.01
614.29	14.53
614.63	7.75
614.96	-0.65
615.30	5.81
615.63	3.23
615.96	-5.17
616.30	-4.52
616.63	-2.91
616.97	0.97
617.30	21.95
617.63	31.64
617.97	42.61
618.30	52.62
618.63	38.42
618.97	26.15
619.30	20.66
619.63	6.13
619.97	6.46
620.30	7.43
620.63	10.65
620.97	21.31
621.30	23.89
621.63	2.26
621.97	10.33
622.30	16.46
622.63	15.50
622.96	28.73
623.30	23.57
623.63	32.28
623.96	55.53
624.30	49.07
624.63	49.72
624.96	39.71
625.29	12.59
625.63	15.50
625.96	11.62
626.29	13.88
626.62	18.40
626.96	14.53
627.29	17.43
627.62	38.42
627.95	41.00
628.28	39.71
628.62	34.54
628.95	26.80
629.28	14.85
629.61	29.05
629.95	33.57
630.28	29.38
630.61	35.19
630.94	33.25
631.27	34.87
631.60	33.90
631.94	5.49
632.27	4.52
632.60	15.50
632.93	-6.78
633.26	-3.55
633.59	0.97
633.93	9.04
634.26	14.53
634.59	2.26
634.92	-13.88
635.25	-0.32
635.58	-14.85
635.91	-27.76
636.24	-38.42
636.58	-17.43
636.91	-18.40
637.24	-10.01
637.57	-19.69
637.90	-14.85
638.23	-6.46
638.56	1.94
638.89	-13.24
639.22	-13.56
639.55	-20.34
639.88	-10.33
640.22	-6.46
640.55	-13.56
640.88	-8.72
641.21	-26.15
641.54	-24.86
641.87	-10.01
642.20	-21.63
642.53	-22.28
642.86	-17.11
643.19	-11.62
643.52	-10.33
643.85	-21.31
644.18	-29.05
644.51	-33.57
644.84	-22.60
645.17	-18.40
645.50	-50.68
645.83	-32.61
646.16	-21.31
646.49	-36.16
646.82	-23.89
647.15	-24.21
647.48	-28.41
647.81	-11.62
648.14	-15.82
648.47	-12.59
648.80	-4.20
649.13	6.46
649.46	-3.23
649.79	-11.62
650.11	-4.52
650.44	-1.94
650.77	-10.98
651.10	-11.30
651.43	-16.79
651.76	-21.95
652.09	-11.94
652.42	-25.83
652.75	-27.44
653.08	-21.95
653.41	-15.50
653.73	-19.05
654.06	-16.46
654.39	-6.13
654.72	8.39
655.05	-2.26
655.38	-3.55
655.71	-7.75
656.04	-3.55
656.36	2.91
656.69	4.84
657.02	6.78
657.35	2.58
657.68	14.85
658.01	19.05
658.33	20.34
658.66	16.46
658.99	4.20
659.32	-2.26
659.65	7.10
659.97	-14.53
660.30	-20.98
660.63	-40.68
660.96	-46.17
661.29	-43.58
661.61	-54.88
661.94	-53.27
662.27	-40.03
662.60	-27.76
662.92	-13.88
663.25	-10.33
663.58	-8.39
663.91	-2.58
664.23	-2.26
664.56	-5.49
664.89	-12.91
665.22	-21.63
665.54	-5.49
665.87	-17.11
666.20	-27.44
666.53	-37.77
666.85	-40.03
667.18	-34.22
667.51	-31.31
667.83	-54.56
668.16	-47.78
668.49	-42.94
668.81	-31.64
669.14	-29.05
669.47	-29.05
669.79	-25.83
670.12	-16.14
670.45	-17.76
670.77	-12.27
671.10	-17.76
671.43	-17.11
671.75	-24.86
672.08	-29.70
672.41	-36.16
672.73	-20.34
673.06	-20.66
673.39	-17.11
673.71	-24.21
674.04	-20.02
674.36	-13.56
674.69	-0.32
675.02	-29.38
675.34	-23.89
675.67	-22.60
675.99	-7.75
676.32	3.87
676.64	5.49
676.97	11.94
677.30	41.65
677.62	45.84
677.95	51.01
678.27	31.96
678.60	23.89
678.92	32.28
679.25	22.60
679.57	-1.29
679.90	-7.75
680.22	-10.33
680.55	-0.97
680.88	-6.46
681.20	-17.43
681.53	-22.92
681.85	-1.29
682.18	-3.55
682.50	-9.04
682.83	-6.13
683.15	6.78
683.47	15.17
683.80	10.33
684.12	-8.39
684.45	-3.23
684.77	-3.87
685.10	-17.43
685.42	-47.13
685.75	-53.91
686.07	-52.94
686.40	-41.97
686.72	-41.32
687.04	-33.57
687.37	-21.95
687.69	8.07
688.02	9.04
688.34	22.60
688.67	7.75
688.99	-0.65
689.31	-9.36
689.64	0.97
689.96	-5.49
690.28	1.94
690.61	12.59
690.93	41.97
691.26	51.01
691.58	45.52
691.90	20.66
692.23	5.81
692.55	-6.46
692.87	-12.91
693.20	-29.05
693.52	-38.09
693.84	-35.51
694.17	-18.40
694.49	-21.31
694.81	-14.53
695.14	-24.21
695.46	-10.65
695.78	8.72
696.11	9.04
696.43	6.46
696.75	21.63
697.08	11.62
697.40	4.52
697.72	-3.23
698.04	-17.11
698.37	-10.65
698.69	-7.75
699.01	-14.20
699.33	-0.65
699.66	4.52
699.98	-5.49
700.30	0.97
700.62	7.75
700.95	1.94
701.27	4.84
701.59	-0.32
701.91	-10.65
702.24	-11.94
702.56	-16.14
702.88	-18.08
703.20	-0.97
703.52	-12.27
703.85	-24.86
704.17	0.32
704.49	-3.55
704.81	-0.65
705.13	-7.10
705.45	-11.94
705.78	-1.61
706.10	6.46
706.42	-26.15
706.74	-12.27
707.06	-15.50
707.38	-7.43
707.71	-1.29
708.03	12.27
708.35	10.01
708.67	34.22
708.99	19.37
709.31	15.50
709.63	16.14
709.95	-5.81
710.27	-24.21
710.60	-9.04
710.92	-19.37
711.24	-15.50
711.56	-12.27
711.88	-17.11
712.20	-21.95
712.52	-15.50
712.84	-29.38
713.16	-22.60
713.48	-10.98
713.80	-18.08
714.12	-30.35
714.44	-3.87
714.76	11.94
715.08	17.43
715.40	20.02
715.72	13.24
716.04	9.68
716.36	22.60
716.68	17.76
717.00	9.04
717.32	10.65
717.64	7.10
717.96	2.91
718.28	17.76
718.60	28.09
718.92	28.73
719.24	14.53
719.56	19.37
719.88	-0.00
720.20	2.91
720.52	-10.01
720.84	-34.22
721.16	-32.61
721.48	-20.34
721.80	-22.60
722.12	1.94
722.44	7.43
722.76	18.40
723.08	26.47
723.40	8.39
723.72	-11.30
724.03	-12.59
724.35	-13.24
724.67	-15.50
724.99	-11.94
725.31	-13.24
725.63	0.65
725.95	-6.13
726.27	-20.66
726.58	-21.31
726.90	-17.76
727.22	-19.05
727.54	-26.80
727.86	-37.45
728.18	-2.26
728.50	-3.23
728.81	-1.61
729.13	-6.46
729.45	-10.65
729.77	4.84
730.09	7.43
730.40	-20.66
730.72	-11.94
731.04	-30.02
731.36	-18.08
731.68	-10.98
731.99	-28.09
732.31	-36.16
732.63	-19.69
732.95	-16.46
733.27	-0.97
733.58	-0.65
733.90	0.32
734.22	20.34
734.54	36.80
734.85	35.19
735.17	43.26
735.49	34.54
735.80	16.46
736.12	6.46
736.44	-10.98
736.76	-33.90
737.07	-32.28
737.39	-43.58
737.71	-38.42
738.02	-30.35
738.34	-41.00
738.66	-40.03
738.97	-31.31
739.29	-43.26
739.61	-34.87
739.93	-30.02
740.24	-40.03
740.56	-32.93
740.87	-20.02
741.19	-13.24
741.51	0.97
741.82	-15.17
742.14	2.26
742.46	2.58
742.77	-6.46
743.09	2.26
743.41	-15.17
743.72	-28.09
744.04	-17.43
744.35	-40.68
744.67	-42.61
744.99	-26.80
745.30	-42.29
745.62	-8.07
745.93	14.85
746.25	1.61
746.56	12.91
746.88	27.44
747.20	36.48
747.51	41.32
747.83	23.24
748.14	5.81
748.46	14.20
748.77	-1.61
749.09	-14.20
749.40	-14.85
749.72	-1.94
750.03	0.97
750.35	-1.94
750.66	3.87
750.98	31.96
751.29	45.52
751.61	36.16
751.92	20.34
752.24	12.91
752.55	10.98
752.87	-4.20
753.18	-36.80
753.50	-46.49
753.81	-36.80
754.13	-47.46
754.44	-40.68
754.76	-25.18
755.07	-7.10
755.38	4.52
755.70	0.00
756.01	-10.65
756.33	0.32
756.64	-6.13
756.95	-16.46
757.27	-35.19
757.58	-33.25
757.90	-23.57
758.21	-5.81
758.52	-7.43
758.84	-5.81
759.15	4.84
759.47	39.06
759.78	44.55
760.09	61.66
760.41	51.65
760.72	63.28
761.03	58.76
761.35	51.65
761.66	23.24
761.97	11.94
762.29	-6.46
762.60	-9.36
762.91	-25.83
763.23	-14.53
763.54	-16.14
763.85	0.65
764.17	1.94
764.48	7.75
764.79	-3.23
765.10	-3.23
765.42	0.97
765.73	-2.91
766.04	-16.14
766.36	-5.81
766.67	-27.44
766.98	-20.34
767.29	-9.68
767.61	-14.20
767.92	3.87
768.23	-1.94
768.54	-6.78
768.86	5.81
769.17	10.98
769.48	15.50
769.79	17.11
770.10	-3.87
770.42	7.43
770.73	1.94
771.04	-1.29
771.35	-22.60
771.66	-30.67
771.98	-28.09
772.29	-26.80
772.60	-38.42
772.91	-30.35
773.22	-10.33
773.53	3.23
773.85	6.13
774.16	-7.10
774.47	5.81
774.78	8.39
775.09	4.20
775.40	-16.46
775.71	-13.56
776.02	-11.62
776.34	0.00
776.65	-4.52
776.96	13.24
777.27	15.17
777.58	30.35
777.89	35.19
778.20	23.24
778.51	5.49
778.82	-1.94
779.13	-10.01
779.44	0.32
779.75	4.20
780.06	-9.68
780.38	-10.98
780.69	5.81
781.00	-1.61
781.31	4.20
781.62	-10.33
781.93	-16.46
782.24	-5.49
782.55	14.20
782.86	10.33
783.17	16.79
783.48	7.10
783.79	9.36
784.10	7.43
784.41	5.49
784.72	-11.30
785.03	-10.01
785.34	-1.29
785.65	-2.58
785.96	-7.10
786.27	-17.76
786.57	-16.46
786.88	0.97
787.19	-6.13
787.50	-19.05
787.81	-20.34
788.12	-17.43
788.43	-8.72
788.74	-8.39
789.05	-31.96
789.36	-24.54
789.67	-20.34
789.98	-10.33
790.29	-1.94
790.59	1.94
790.90	-1.29
791.21	10.01
791.52	15.82
791.83	15.50
792.14	13.56
792.45	12.91
792.75	19.37
793.06	21.31
793.37	18.40
793.68	10.98
793.99	18.72
794.30	20.34
794.60	23.89
794.91	21.31
795.22	27.44
795.53	27.44
795.84	36.48
796.15	34.87
796.45	32.61
796.76	30.35
797.07	14.53
797.38	0.00
797.68	0.97
797.99	-3.87
798.30	11.62
798.61	19.05
798.91	10.65
799.22	28.73
799.53	49.07
799.84	56.82
800.14	54.56
800.45	51.33
800.76	52.94
801.07	52.94
801.37	35.51
801.68	6.78
801.99	-4.52
802.29	5.81
802.60	-3.23
802.91	-7.10
803.22	-4.84
803.52	3.87
803.83	26.15
804.14	32.61
804.44	35.51
804.75	30.35
805.06	26.47
805.36	16.46
805.67	1.61
805.97	-7.10
806.28	-2.26
806.59	-11.94
806.89	-18.08
807.20	-26.80
807.51	-7.75
807.81	3.55
808.12	11.30
808.42	16.14
808.73	10.01
809.04	30.02
809.34	57.79
809.65	55.20
809.95	44.23
810.26	41.32
810.56	31.31
810.87	36.48
811.18	22.28
811.48	0.97
811.79	-10.98
812.09	-1.94
812.40	-3.87
812.70	-1.61
813.01	-0.65
813.31	-6.13
813.62	1.94
813.92	10.33
814.23	7.75
814.53	-1.61
814.84	21.31
815.14	-3.55
815.45	0.65
815.75	-16.79
816.06	-20.66
816.36	-15.50
816.67	3.87
816.97	-24.54
817.28	2.58
817.58	0.97
817.89	14.53
818.19	10.01
818.49	10.33
818.80	12.91
819.10	4.52
819.41	3.87
819.71	19.69
820.01	21.31
820.32	9.68
820.62	-10.98
820.93	-22.28
821.23	4.52
821.53	-2.58
821.84	-19.69
822.14	-37.45
822.45	-21.31
822.75	-3.87
823.05	-7.43
823.36	-6.13
823.66	-13.24
823.96	-5.17
824.27	6.78
824.57	6.78
824.87	15.82
825.18	30.99
825.48	17.43
825.78	44.87
826.09	50.68
826.39	54.56
826.69	51.98
827.00	47.13
827.30	60.69
827.60	70.38
827.90	62.31
828.21	66.50
828.51	68.44
828.81	64.57
829.11	72.96
829.42	37.13
829.72	16.79
830.02	-1.94
830.32	-6.78
830.63	-8.72
830.93	-18.72
831.23	-38.09
831.53	-24.54
831.84	-8.07
832.14	10.33
832.44	16.79
832.74	8.39
833.04	20.98
833.35	28.09
833.65	30.02
833.95	19.69
834.25	8.39
834.55	1.61
834.85	10.01
835.16	30.35
835.46	24.54
835.76	21.31
836.06	17.76
836.36	21.95
836.66	16.79
836.96	8.39
837.26	-6.78
837.57	16.79
837.87	6.46
838.17	6.46
838.47	6.13
838.77	-1.61
839.07	-1.29
839.37	1.94
839.67	-6.78
839.97	-10.65
840.27	-8.72
840.57	-2.58
840.88	6.46
841.18	9.04
841.48	6.46
841.78	0.65
842.08	12.59
842.38	12.59
842.68	-5.81
842.98	-3.23
843.28	0.32
843.58	-4.84
843.88	-0.65
844.18	-14.85
844.48	0.97
844.78	31.96
845.08	41.32
845.38	35.51
845.68	41.65
845.98	28.73
846.28	22.60
846.58	7.75
846.88	-13.88
847.18	-36.80
847.48	-29.05
847.78	-31.31
848.07	-30.02
848.37	-5.17
848.67	2.91
848.97	-10.33
849.27	1.94
849.57	-8.07
849.87	-0.65
850.17	-7.43
850.47	-19.05
850.77	-32.61
851.07	-28.41
851.36	-38.09
851.66	-40.03
851.96	-56.50
852.26	-38.42
852.56	-26.80
852.86	-13.24
853.16	-12.59
853.45	-2.91
853.75	-0.32
854.05	5.17
854.35	-5.17
854.65	-14.20
854.95	-25.83
855.24	-19.05
855.54	-13.56
855.84	-12.59
856.14	-17.43
856.44	6.13
856.73	16.46
857.03	29.70
857.33	34.22
857.63	26.47
857.93	40.03
858.22	47.13
858.52	19.69
858.82	6.13
859.12	9.68
859.41	18.08
859.71	39.71
860.01	27.12
860.30	32.61
860.60	46.49
860.90	43.26
861.20	30.35
861.49	11.30
861.79	-0.97
862.09	14.85
862.38	-8.07
862.68	-16.46
862.98	4.52
863.27	9.68
863.57	27.12
863.87	7.10
864.16	-10.01
864.46	10.33
864.76	15.50
865.05	5.17
865.35	-11.62
865.65	-27.76
865.94	-14.20
866.24	-22.28
866.54	-22.92
866.83	-15.17
867.13	-1.29
867.42	21.31
867.72	11.30
868.02	2.58
868.31	16.14
868.61	7.10
868.90	0.65
869.20	-10.33
869.49	-20.66
869.79	-0.32
870.08	12.91
870.38	15.50
870.68	10.98
870.97	2.26
871.27	5.81
871.56	-2.58
871.86	8.07
872.15	-1.29
872.45	-1.94
872.74	10.65
873.04	21.63
873.33	25.18
873.63	25.50
873.92	1.29
874.22	1.29
874.51	1.94
874.81	3.87
875.10	4.20
875.40	-1.61
875.69	11.94
875.98	18.08
876.28	31.96
876.57	32.93
876.87	15.82
877.16	13.24
877.46	13.24
877.75	4.20
878.04	7.10
878.34	-13.24
878.63	-10.01
878.93	11.30
879.22	-7.43
879.51	-9.36
879.81	-2.58
880.10	-1.61
880.40	-8.39
880.69	-23.57
880.98	-36.80
881.28	-26.15
881.57	-38.42
881.86	-41.32
882.16	-49.72
882.45	-30.67
882.74	-19.37
883.04	-15.82
883.33	-0.32
883.62	-2.58
883.92	-15.82
884.21	76.83
884.50	-85.87
>>>>>End Processed Spectral Data<<<<<
