SpectraSuite Data File
++++++++++++++++++++++++++++++++++++
Date: Fri Feb 20 12:09:04 EST 2015
User: Administrator
Dark Spectrum Present: Yes
Reference Spectrum Present: No
Number of Sampled Component Spectra: 1
Spectrometers: SB2+H01071
Integration Time (usec): 5000000 (SB2+H01071)
Spectra Averaged: 1 (SB2+H01071)
Boxcar Smoothing: 3 (SB2+H01071)
Correct for Electrical Dark: No (SB2+H01071)
Strobe/Lamp Enabled: Yes (SB2+H01071)
Correct for Detector Non-linearity: No (SB2+H01071)
Correct for Stray Light: No (SB2+H01071)
Number of Pixels in Processed Spectrum: 2048
>>>>>Begin Processed Spectral Data<<<<<
191.06	22.60
191.43	22.60
191.81	22.60
192.19	29.70
192.56	40.68
192.94	39.06
193.31	22.92
193.69	10.65
194.07	5.17
194.44	-1.94
194.82	6.46
195.19	-11.94
195.57	-19.69
195.95	-4.52
196.32	4.84
196.70	-6.13
197.07	-4.84
197.45	-28.09
197.83	-17.11
198.20	-7.10
198.58	-11.30
198.95	-14.85
199.33	-2.91
199.70	-5.81
200.08	-10.01
200.46	-0.65
200.83	-8.07
201.21	7.75
201.58	20.66
201.96	22.60
202.33	44.87
202.71	55.53
203.09	36.80
203.46	30.67
203.84	27.12
204.21	15.50
204.59	8.39
204.96	-3.23
205.34	-18.40
205.71	-5.49
206.09	24.54
206.46	23.89
206.84	25.83
207.21	30.67
207.59	33.90
207.96	40.35
208.34	32.28
208.71	6.78
209.09	-10.33
209.46	-8.07
209.84	6.78
210.21	-0.97
210.59	4.20
210.96	-4.20
211.34	1.29
211.71	11.30
212.09	2.91
212.46	-13.88
212.84	-22.28
213.21	-34.87
213.59	-2.91
213.96	4.52
214.34	3.55
214.71	14.85
215.08	13.88
215.46	25.50
215.83	39.39
216.21	18.40
216.58	17.43
216.96	18.40
217.33	25.83
217.70	23.89
218.08	10.01
218.45	8.39
218.83	1.29
219.20	-10.65
219.58	-14.20
219.95	-28.41
220.32	-6.46
220.70	1.29
221.07	-6.13
221.45	-0.97
221.82	9.04
222.19	11.62
222.57	7.10
222.94	-6.46
223.32	-15.17
223.69	1.29
224.06	8.72
224.44	10.33
224.81	11.94
225.18	10.33
225.56	21.31
225.93	34.87
226.31	51.01
226.68	43.26
227.05	44.23
227.43	36.16
227.80	45.84
228.17	23.24
228.55	16.14
228.92	-13.88
229.29	-13.56
229.67	-28.73
230.04	-44.23
230.41	-47.46
230.79	-40.68
231.16	-33.90
231.53	-20.98
231.91	-33.90
232.28	-20.66
232.65	2.91
233.03	3.87
233.40	27.76
233.77	26.47
234.15	17.76
234.52	28.41
234.89	23.89
235.26	10.65
235.64	1.94
236.01	-10.33
236.38	-2.58
236.76	-4.84
237.13	-21.31
237.50	-5.81
237.87	-3.87
238.25	23.57
238.62	20.34
238.99	28.41
239.36	34.22
239.74	52.94
240.11	28.73
240.48	45.84
240.85	34.87
241.23	30.67
241.60	2.26
241.97	-3.87
242.34	-30.02
242.72	-30.02
243.09	-46.17
243.46	-68.12
243.83	-64.89
244.20	-56.82
244.58	-61.66
244.95	-44.55
245.32	-40.35
245.69	-45.20
246.07	-32.61
246.44	-43.58
246.81	-21.63
247.18	-10.98
247.55	-2.26
247.92	-2.91
248.30	2.58
248.67	10.65
249.04	10.33
249.41	-3.23
249.78	-4.84
250.16	13.88
250.53	31.31
250.90	33.90
251.27	32.93
251.64	36.48
252.01	29.70
252.39	24.21
252.76	5.81
253.13	-6.13
253.50	-23.89
253.87	-32.93
254.24	-44.23
254.61	-45.20
254.98	-42.94
255.36	-45.20
255.73	-39.71
256.10	-21.95
256.47	-16.46
256.84	-1.61
257.21	-7.75
257.58	-8.72
257.95	-9.68
258.33	-10.01
258.70	-12.27
259.07	-13.88
259.44	-5.17
259.81	6.46
260.18	10.65
260.55	12.27
260.92	0.97
261.29	11.30
261.66	10.01
262.03	-2.26
262.40	-3.23
262.77	3.23
263.15	-7.10
263.52	-18.72
263.89	-31.96
264.26	-39.06
264.63	-33.25
265.00	-44.23
265.37	-41.65
265.74	-24.21
266.11	2.58
266.48	14.85
266.85	27.44
267.22	22.60
267.59	36.80
267.96	43.91
268.33	37.13
268.70	27.12
269.07	24.21
269.44	24.21
269.81	13.24
270.18	10.33
270.55	-23.89
270.92	-32.28
271.29	-24.54
271.66	-22.28
272.03	-16.14
272.40	-7.10
272.77	-18.08
273.14	2.91
273.51	6.78
273.88	-14.53
274.25	-12.91
274.62	-20.34
274.99	-18.40
275.36	1.94
275.73	2.91
276.10	17.11
276.47	28.09
276.84	34.87
277.21	29.38
277.58	39.06
277.94	37.77
278.31	35.51
278.68	42.94
279.05	42.29
279.42	41.00
279.79	37.45
280.16	3.23
280.53	-12.27
280.90	-21.31
281.27	-45.52
281.64	-27.12
282.01	-35.51
282.37	-31.96
282.74	-0.97
283.11	9.36
283.48	10.01
283.85	14.53
284.22	-5.49
284.59	-13.56
284.96	-14.20
285.33	-15.82
285.69	-12.91
286.06	-4.20
286.43	-2.91
286.80	12.59
287.17	27.44
287.54	43.58
287.91	32.61
288.27	37.13
288.64	32.93
289.01	47.46
289.38	37.77
289.75	31.31
290.12	28.09
290.48	18.08
290.85	1.29
291.22	-4.52
291.59	-25.50
291.96	-36.48
292.33	-45.52
292.69	-59.40
293.06	-37.13
293.43	-30.67
293.80	-23.89
294.17	-14.53
294.53	-12.91
294.90	-13.56
295.27	-2.91
295.64	14.20
296.01	24.54
296.37	24.21
296.74	28.73
297.11	38.09
297.48	37.13
297.84	37.77
298.21	18.72
298.58	4.20
298.95	0.32
299.31	-9.68
299.68	5.49
300.05	20.02
300.42	16.14
300.78	7.10
301.15	24.54
301.52	32.28
301.89	46.81
302.25	26.80
302.62	26.15
302.99	26.15
303.35	18.08
303.72	1.29
304.09	-16.79
304.46	-27.76
304.82	-12.27
305.19	-11.94
305.56	-17.11
305.92	1.94
306.29	13.24
306.66	30.02
307.02	18.08
307.39	-3.55
307.76	-1.94
308.12	10.33
308.49	-8.72
308.86	-14.85
309.23	0.65
309.59	16.46
309.96	30.02
310.32	29.70
310.69	13.24
311.06	29.38
311.42	38.74
311.79	1.94
312.16	-10.65
312.52	-7.75
312.89	-14.20
313.26	-5.81
313.62	-6.78
313.99	-22.60
314.35	-3.55
314.72	12.59
315.09	7.75
315.45	17.76
315.82	15.17
316.19	19.05
316.55	30.67
316.92	19.37
317.28	6.46
317.65	0.65
318.02	-7.43
318.38	-16.14
318.75	-28.41
319.11	-36.16
319.48	-19.69
319.84	-11.30
320.21	-13.88
320.58	-10.33
320.94	34.22
321.31	37.45
321.67	40.68
322.04	40.68
322.40	48.42
322.77	53.27
323.13	50.68
323.50	12.59
323.86	11.94
324.23	24.21
324.60	36.80
324.96	16.46
325.33	5.81
325.69	3.23
326.06	9.36
326.42	12.59
326.79	-8.07
327.15	-24.86
327.52	-27.12
327.88	-12.27
328.25	-5.81
328.61	-5.17
328.98	-2.58
329.34	1.29
329.71	-20.02
330.07	-20.02
330.44	-28.41
330.80	-29.70
331.16	-34.87
331.53	-35.19
331.89	-17.11
332.26	6.46
332.62	24.54
332.99	33.57
333.35	42.29
333.72	56.50
334.08	62.31
334.45	45.20
334.81	56.82
335.17	56.82
335.54	54.88
335.90	45.20
336.27	21.95
336.63	19.37
337.00	27.76
337.36	11.62
337.72	-1.29
338.09	-0.97
338.45	-3.55
338.82	10.33
339.18	-0.00
339.54	3.23
339.91	17.76
340.27	29.38
340.63	23.57
341.00	17.76
341.36	31.31
341.73	37.77
342.09	33.57
342.45	30.67
342.82	28.73
343.18	42.61
343.54	62.31
343.91	55.85
344.27	45.52
344.63	33.57
345.00	45.52
345.36	39.06
345.72	22.60
346.09	2.58
346.45	-0.32
346.81	4.20
347.18	36.16
347.54	14.85
347.90	16.14
348.27	7.10
348.63	2.91
348.99	-14.20
349.36	-10.33
349.72	-29.05
350.08	-32.61
350.45	-46.49
350.81	-30.35
351.17	-21.63
351.53	-7.75
351.90	2.91
352.26	-16.14
352.62	-25.18
352.98	-21.31
353.35	-20.02
353.71	-23.24
354.07	-11.94
354.44	-38.74
354.80	-17.76
355.16	-8.07
355.52	-8.07
355.88	-12.59
356.25	-6.78
356.61	-25.18
356.97	-18.40
357.33	-21.95
357.70	-7.75
358.06	-5.81
358.42	-13.56
358.78	-31.64
359.15	-40.35
359.51	-30.35
359.87	-37.13
360.23	-51.65
360.59	-33.90
360.95	-28.09
361.32	-16.14
361.68	-7.43
362.04	-11.94
362.40	-8.07
362.76	-6.46
363.13	-12.91
363.49	-11.94
363.85	3.55
364.21	-2.26
364.57	6.13
364.93	10.65
365.30	21.31
365.66	21.63
366.02	27.12
366.38	21.95
366.74	39.06
367.10	32.93
367.46	24.54
367.83	16.46
368.19	25.83
368.55	24.86
368.91	0.65
369.27	-5.17
369.63	-5.17
369.99	-15.50
370.35	-12.27
370.71	-25.50
371.08	-23.89
371.44	-15.17
371.80	-7.10
372.16	8.07
372.52	23.57
372.88	19.37
373.24	19.05
373.60	18.40
373.96	25.18
374.32	15.50
374.68	9.68
375.04	11.62
375.40	13.24
375.76	15.50
376.13	16.46
376.49	29.38
376.85	42.94
377.21	34.54
377.57	27.12
377.93	16.46
378.29	16.79
378.65	18.40
379.01	11.30
379.37	-8.07
379.73	-13.88
380.09	-12.91
380.45	-4.84
380.81	1.61
381.17	-15.82
381.53	-9.36
381.89	-55.20
382.25	-57.79
382.61	-61.66
382.97	-60.69
383.33	-81.03
383.69	-58.43
384.05	-56.82
384.41	-6.78
384.77	6.46
385.13	12.59
385.49	4.52
385.85	22.60
386.20	15.50
386.56	-4.84
386.92	-9.68
387.28	-22.28
387.64	-22.28
388.00	-19.69
388.36	-24.86
388.72	-27.44
389.08	-30.35
389.44	-24.21
389.80	-25.18
390.16	-24.86
390.52	-25.18
390.88	-28.41
391.23	-19.05
391.59	-6.46
391.95	-6.13
392.31	-1.29
392.67	-13.24
393.03	0.00
393.39	-14.53
393.75	-12.59
394.11	-10.01
394.46	-1.94
394.82	15.17
395.18	11.94
395.54	2.26
395.90	18.40
396.26	-1.94
396.62	-8.72
396.97	-16.46
397.33	-23.57
397.69	-28.09
398.05	-34.54
398.41	-20.66
398.77	-26.80
399.12	-22.92
399.48	-15.50
399.84	-20.98
400.20	-11.94
400.56	-4.52
400.91	-19.05
401.27	-16.14
401.63	-13.88
401.99	-17.11
402.35	-18.72
402.70	-16.46
403.06	-25.18
403.42	-33.25
403.78	-23.24
404.14	-25.50
404.49	-22.28
404.85	-21.95
405.21	-26.80
405.57	-20.66
405.92	-1.61
406.28	-0.32
406.64	-11.94
407.00	-19.69
407.35	-24.21
407.71	-16.79
408.07	-22.92
408.43	-39.71
408.78	-45.84
409.14	-21.63
409.50	-10.33
409.85	-4.84
410.21	9.04
410.57	16.14
410.93	12.59
411.28	27.12
411.64	15.17
412.00	4.84
412.35	15.17
412.71	13.88
413.07	12.27
413.42	20.66
413.78	26.80
414.14	22.92
414.49	10.01
414.85	11.94
415.21	-3.23
415.56	2.58
415.92	23.57
416.28	21.31
416.63	18.08
416.99	43.26
417.35	34.54
417.70	33.25
418.06	13.88
418.42	-2.91
418.77	-2.26
419.13	-4.52
419.48	-16.46
419.84	-24.86
420.20	-16.79
420.55	-6.46
420.91	-9.04
421.27	-3.55
421.62	17.43
421.98	5.17
422.33	9.68
422.69	12.27
423.05	17.43
423.40	19.69
423.76	7.75
424.11	-11.30
424.47	8.07
424.82	36.80
425.18	26.47
425.54	23.57
425.89	16.46
426.25	8.07
426.60	-0.32
426.96	-12.27
427.31	-22.60
427.67	-9.36
428.02	1.61
428.38	15.82
428.73	19.37
429.09	26.80
429.44	21.63
429.80	6.13
430.15	17.76
430.51	8.72
430.86	7.75
431.22	7.43
431.57	9.36
431.93	23.89
432.28	19.05
432.64	-6.78
432.99	3.55
433.35	10.33
433.70	3.87
434.06	10.33
434.41	-6.78
434.77	4.20
435.12	10.65
435.48	-9.36
435.83	-16.79
436.19	5.17
436.54	10.65
436.89	25.18
437.25	15.82
437.60	10.01
437.96	20.66
438.31	23.24
438.67	0.00
439.02	-5.81
439.37	-13.88
439.73	-23.57
440.08	-15.17
440.44	-19.37
440.79	-33.25
441.15	-29.70
441.50	-24.21
441.85	-26.80
442.21	-0.32
442.56	-2.58
442.91	-10.98
443.27	-3.55
443.62	0.97
443.98	-15.17
444.33	-16.14
444.68	-29.70
445.04	-34.87
445.39	-16.14
445.74	-18.08
446.10	-15.17
446.45	-9.04
446.80	10.65
447.16	5.17
447.51	13.56
447.86	8.39
448.22	6.46
448.57	-8.07
448.92	-13.24
449.28	-20.98
449.63	-30.35
449.98	-38.42
450.34	-26.80
450.69	-23.89
451.04	-15.17
451.40	-4.84
451.75	2.58
452.10	29.38
452.45	49.07
452.81	42.29
453.16	30.67
453.51	38.74
453.86	37.13
454.22	15.82
454.57	-10.65
454.92	-31.96
455.27	-34.22
455.63	-4.20
455.98	-3.23
456.33	-1.61
456.68	1.61
457.04	17.43
457.39	19.05
457.74	24.54
458.09	-0.97
458.45	-2.26
458.80	-10.98
459.15	15.82
459.50	4.84
459.85	7.43
460.21	16.79
460.56	22.28
460.91	32.28
461.26	35.51
461.61	13.88
461.97	6.46
462.32	-5.49
462.67	-29.38
463.02	-18.72
463.37	-31.31
463.72	-31.31
464.08	-50.68
464.43	-50.04
464.78	-30.99
465.13	-10.65
465.48	-23.57
465.83	-27.44
466.18	-27.44
466.54	-0.32
466.89	7.10
467.24	3.87
467.59	-2.58
467.94	-2.58
468.29	-7.43
468.64	-2.58
468.99	-5.49
469.34	-10.98
469.70	-11.62
470.05	-18.72
470.40	-15.82
470.75	-16.46
471.10	-13.56
471.45	-30.99
471.80	-15.17
472.15	-18.08
472.50	-17.43
472.85	-20.66
473.20	-11.94
473.55	-13.88
473.90	-9.36
474.25	-10.98
474.61	-0.97
474.96	-10.01
475.31	-8.07
475.66	-17.76
476.01	-30.67
476.36	-16.46
476.71	-11.30
477.06	-8.07
477.41	19.37
477.76	15.17
478.11	30.02
478.46	34.22
478.81	31.31
479.16	18.72
479.51	7.10
479.86	-1.94
480.21	6.46
480.56	0.65
480.91	13.24
481.26	6.13
481.61	20.02
481.96	30.35
482.31	22.92
482.66	18.08
483.00	28.41
483.35	22.92
483.70	8.07
484.05	0.97
484.40	-0.65
484.75	0.32
485.10	12.27
485.45	-6.46
485.80	-12.59
486.15	-2.91
486.50	-0.32
486.85	-17.76
487.20	-20.02
487.55	-36.16
487.89	-45.52
488.24	-41.97
488.59	-17.76
488.94	-26.80
489.29	-25.83
489.64	-34.22
489.99	-29.70
490.34	-16.14
490.68	-11.62
491.03	-20.34
491.38	-6.46
491.73	7.10
492.08	25.18
492.43	28.09
492.78	20.98
493.12	17.11
493.47	10.65
493.82	3.23
494.17	6.78
494.52	-6.46
494.87	-19.69
495.21	-8.07
495.56	-3.87
495.91	8.39
496.26	20.02
496.61	24.54
496.95	25.83
497.30	34.87
497.65	24.86
498.00	13.24
498.35	10.98
498.69	3.87
499.04	-15.17
499.39	-9.04
499.74	-8.72
500.08	-6.13
500.43	-0.97
500.78	-5.17
501.13	-19.05
501.48	-14.85
501.82	-17.76
502.17	-18.08
502.52	-18.08
502.86	-15.82
503.21	-23.89
503.56	-12.27
503.91	-8.39
504.25	-14.20
504.60	-5.17
504.95	-14.85
505.30	-12.27
505.64	-7.75
505.99	-8.07
506.34	-17.76
506.68	-9.04
507.03	-17.76
507.38	-1.61
507.72	10.33
508.07	-5.17
508.42	-3.23
508.76	-4.52
509.11	-1.94
509.46	8.39
509.80	1.29
510.15	-21.63
510.50	-7.43
510.84	-13.88
511.19	1.29
511.54	-6.13
511.88	-5.49
512.23	7.75
512.57	30.99
512.92	24.86
513.27	24.54
513.61	27.44
513.96	26.80
514.31	21.31
514.65	22.28
515.00	-10.33
515.34	1.61
515.69	7.10
516.03	6.78
516.38	0.97
516.73	-8.39
517.07	-32.61
517.42	-13.88
517.76	-14.85
518.11	-19.69
518.45	-39.71
518.80	-33.90
519.15	-23.57
519.49	-6.78
519.84	5.49
520.18	-1.94
520.53	-8.72
520.87	-1.94
521.22	-13.24
521.56	-30.99
521.91	-35.19
522.25	-51.98
522.60	-41.32
522.94	-37.77
523.29	-31.64
523.63	-13.88
523.98	3.23
524.32	16.46
524.67	17.43
525.01	9.68
525.36	9.36
525.70	4.52
526.05	-13.24
526.39	-26.80
526.74	-33.57
527.08	-23.57
527.43	-36.80
527.77	-29.70
528.12	-14.53
528.46	1.61
528.80	10.65
529.15	8.39
529.49	3.55
529.84	19.69
530.18	21.63
530.53	-7.10
530.87	6.46
531.21	3.87
531.56	4.20
531.90	2.58
532.25	-0.32
532.59	-0.00
532.93	15.82
533.28	10.33
533.62	20.66
533.97	22.60
534.31	21.95
534.65	35.51
535.00	43.91
535.34	45.52
535.68	48.42
536.03	32.28
536.37	32.61
536.71	31.64
537.06	12.59
537.40	6.46
537.74	-0.32
538.09	-27.44
538.43	-28.73
538.77	-34.54
539.12	-26.15
539.46	-30.99
539.80	-43.91
540.15	-43.58
540.49	-24.21
540.83	-6.13
541.18	50.04
541.52	41.65
541.86	54.88
542.20	59.72
542.55	67.47
542.89	75.22
543.23	72.31
543.58	12.91
543.92	15.82
544.26	2.58
544.60	4.20
544.95	6.13
545.29	-19.05
545.63	-27.76
545.97	-16.79
546.32	-16.14
546.66	1.94
547.00	12.27
547.34	21.63
547.68	40.03
548.03	36.16
548.37	28.73
548.71	28.73
549.05	24.86
549.39	8.39
549.74	-21.63
550.08	-34.87
550.42	-31.64
550.76	-29.70
551.10	-48.10
551.45	-60.05
551.79	-52.94
552.13	-47.13
552.47	-37.13
552.81	-21.63
553.15	-16.79
553.50	-6.78
553.84	3.23
554.18	10.98
554.52	30.35
554.86	24.86
555.20	12.27
555.54	6.46
555.88	-1.94
556.23	-18.72
556.57	-16.79
556.91	-30.35
557.25	-27.44
557.59	-32.61
557.93	-26.15
558.27	-8.39
558.61	4.52
558.95	-14.53
559.29	-6.13
559.64	-18.72
559.98	-37.77
560.32	-46.81
560.66	-59.40
561.00	-44.55
561.34	-43.91
561.68	-37.45
562.02	-28.09
562.36	-0.65
562.70	1.94
563.04	15.17
563.38	5.81
563.72	14.53
564.06	2.58
564.40	5.49
564.74	8.72
565.08	9.04
565.42	6.13
565.76	-6.78
566.10	4.20
566.44	-0.00
566.78	-3.23
567.12	-9.04
567.46	-1.94
567.80	-6.46
568.14	4.84
568.48	9.04
568.82	19.37
569.16	10.33
569.50	16.79
569.84	8.72
570.18	33.57
570.52	46.81
570.86	26.80
571.20	8.39
571.54	9.04
571.88	5.17
572.22	12.59
572.55	-6.46
572.89	-10.01
573.23	15.17
573.57	16.14
573.91	26.47
574.25	24.86
574.59	15.17
574.93	20.34
575.27	14.20
575.61	-1.94
575.94	4.52
576.28	-0.97
576.62	1.29
576.96	-5.49
577.30	-10.01
577.64	-9.04
577.98	-11.94
578.32	0.00
578.65	5.81
578.99	8.72
579.33	21.95
579.67	23.24
580.01	24.21
580.35	24.54
580.68	17.11
581.02	13.24
581.36	7.75
581.70	-3.87
582.04	-10.98
582.37	-17.43
582.71	-28.09
583.05	-20.02
583.39	-15.82
583.73	-23.24
584.06	-18.40
584.40	-9.36
584.74	-1.94
585.08	8.07
585.41	4.84
585.75	3.87
586.09	9.36
586.43	7.43
586.76	2.91
587.10	-17.11
587.44	-13.88
587.78	-29.70
588.11	-33.57
588.45	-41.00
588.79	-55.53
589.13	-56.50
589.46	-42.94
589.80	-47.13
590.14	-31.96
590.47	-38.09
590.81	-40.68
591.15	-25.83
591.48	-35.19
591.82	-31.64
592.16	-38.09
592.50	-39.39
592.83	-30.67
593.17	-7.43
593.51	-11.94
593.84	1.94
594.18	-4.20
594.51	2.26
594.85	12.91
595.19	18.72
595.52	14.85
595.86	11.62
596.20	18.40
596.53	19.69
596.87	27.76
597.21	10.98
597.54	0.97
597.88	-9.04
598.21	16.46
598.55	11.62
598.89	6.78
599.22	2.26
599.56	5.81
599.89	16.14
600.23	14.85
600.57	9.04
600.90	-2.58
601.24	5.49
601.57	2.58
601.91	-7.75
602.24	-17.43
602.58	-8.72
602.91	-21.31
603.25	-11.62
603.58	-10.33
603.92	-6.78
604.26	9.36
604.59	22.60
604.93	12.27
605.26	18.08
605.60	30.02
605.93	25.18
606.27	11.94
606.60	19.05
606.94	16.46
607.27	23.57
607.61	28.41
607.94	10.98
608.28	10.65
608.61	12.27
608.95	-9.04
609.28	0.65
609.61	-7.75
609.95	-1.29
610.28	7.43
610.62	1.29
610.95	12.59
611.29	18.08
611.62	8.39
611.96	14.20
612.29	5.81
612.62	-13.56
612.96	-8.07
613.29	-6.78
613.63	-2.26
613.96	-7.75
614.29	-1.61
614.63	-8.39
614.96	-1.94
615.30	2.58
615.63	-2.91
615.96	-7.10
616.30	-10.33
616.63	-10.01
616.97	14.20
617.30	24.21
617.63	21.63
617.97	20.98
618.30	17.43
618.63	14.85
618.97	6.46
619.30	-4.20
619.63	-12.27
619.97	-14.85
620.30	-6.13
620.63	0.97
620.97	3.23
621.30	-0.97
621.63	-19.05
621.97	-7.75
622.30	8.39
622.63	1.29
622.96	16.14
623.30	12.91
623.63	27.44
623.96	47.78
624.30	50.68
624.63	35.83
624.96	37.77
625.29	11.30
625.63	14.85
625.96	19.69
626.29	13.56
626.62	0.32
626.96	-5.17
627.29	-3.55
627.62	15.17
627.95	11.94
628.28	-9.04
628.62	-2.91
628.95	-12.91
629.28	-11.30
629.61	-7.10
629.95	-12.91
630.28	-11.30
630.61	9.04
630.94	-3.87
631.27	4.52
631.60	13.24
631.94	1.94
632.27	0.65
632.60	10.33
632.93	-15.17
633.26	-24.21
633.59	-14.53
633.93	-20.98
634.26	-21.63
634.59	-21.63
634.92	-28.41
635.25	-17.11
635.58	-15.82
635.91	-19.05
636.24	-13.56
636.58	-1.29
636.91	2.91
637.24	2.58
637.57	7.43
637.90	13.24
638.23	21.95
638.56	20.02
638.89	13.88
639.22	10.01
639.55	10.98
639.88	2.58
640.22	4.52
640.55	-0.97
640.88	-1.29
641.21	-12.27
641.54	-12.27
641.87	-7.43
642.20	-26.15
642.53	-37.77
642.86	-43.58
643.19	-42.94
643.52	-39.71
643.85	-46.49
644.18	-46.81
644.51	-26.80
644.84	-11.62
645.17	-19.37
645.50	-30.02
645.83	-22.28
646.16	-7.10
646.49	-9.04
646.82	2.58
647.15	-3.23
647.48	11.62
647.81	16.46
648.14	-2.58
648.47	-12.59
648.80	-24.21
649.13	-34.54
649.46	-28.73
649.79	-41.32
650.11	-29.38
650.44	-1.94
650.77	2.26
651.10	7.75
651.43	20.66
651.76	-0.97
652.09	-4.52
652.42	-15.17
652.75	-31.31
653.08	-30.02
653.41	-10.65
653.73	-2.26
654.06	21.31
654.39	28.41
654.72	43.26
655.05	54.56
655.38	38.42
655.71	20.02
656.04	4.20
656.36	9.68
656.69	12.59
657.02	3.55
657.35	-24.54
657.68	-9.68
658.01	-7.10
658.33	3.55
658.66	13.24
658.99	5.81
659.32	-2.58
659.65	18.72
659.97	4.84
660.30	-12.27
660.63	-36.48
660.96	-56.17
661.29	-41.00
661.61	-31.64
661.94	-32.28
662.27	-16.79
662.60	0.97
662.92	6.46
663.25	0.65
663.58	-1.29
663.91	-17.11
664.23	-17.76
664.56	-13.56
664.89	-11.62
665.22	-6.46
665.54	7.10
665.87	8.07
666.20	16.14
666.53	-1.61
666.85	-14.85
667.18	-13.24
667.51	-16.14
667.83	-22.60
668.16	-27.76
668.49	-26.15
668.81	-15.50
669.14	-15.17
669.47	-8.39
669.79	12.59
670.12	10.01
670.45	-6.78
670.77	9.68
671.10	12.59
671.43	9.04
671.75	-9.68
672.08	-22.28
672.41	-22.60
672.73	4.52
673.06	-12.59
673.39	7.43
673.71	18.72
674.04	19.37
674.36	16.46
674.69	17.11
675.02	5.17
675.34	1.29
675.67	-14.53
675.99	-12.27
676.32	14.85
676.64	29.70
676.97	40.68
677.30	36.80
677.62	44.87
677.95	46.49
678.27	32.28
678.60	20.02
678.92	15.17
679.25	3.87
679.57	3.23
679.90	0.00
680.22	20.02
680.55	37.45
680.88	20.66
681.20	-4.84
681.53	-2.58
681.85	-7.10
682.18	0.32
682.50	-19.05
682.83	-27.76
683.15	-18.08
683.47	-4.84
683.80	-22.92
684.12	-15.82
684.45	-32.93
684.77	-30.99
685.10	-43.26
685.42	-42.94
685.75	-43.26
686.07	-28.73
686.40	-19.37
686.72	-10.65
687.04	-24.54
687.37	-11.62
687.69	3.87
688.02	9.36
688.34	14.20
688.67	-8.07
688.99	-20.98
689.31	-10.01
689.64	-7.75
689.96	-21.31
690.28	-10.65
690.61	-16.14
690.93	14.85
691.26	31.96
691.58	25.18
691.90	11.62
692.23	-0.00
692.55	-1.61
692.87	4.52
693.20	-9.36
693.52	-25.50
693.84	-14.85
694.17	-16.46
694.49	-10.01
694.81	-23.24
695.14	-17.11
695.46	-16.14
695.78	-5.81
696.11	-15.50
696.43	-0.65
696.75	0.32
697.08	-3.87
697.40	-14.53
697.72	-10.98
698.04	-3.87
698.37	9.68
698.69	-0.32
699.01	2.58
699.33	15.82
699.66	15.50
699.98	9.04
700.30	11.30
700.62	12.59
700.95	25.18
701.27	24.54
701.59	20.66
701.91	17.76
702.24	10.01
702.56	18.40
702.88	26.47
703.20	22.92
703.52	19.37
703.85	11.94
704.17	15.82
704.49	26.80
704.81	12.27
705.13	1.94
705.45	11.62
705.78	22.60
706.10	20.66
706.42	3.55
706.74	-2.91
707.06	3.23
707.38	0.00
707.71	-7.75
708.03	-21.31
708.35	-11.62
708.67	14.53
708.99	-6.78
709.31	-16.14
709.63	-14.20
709.95	-24.21
710.27	-1.29
710.60	10.65
710.92	-6.78
711.24	23.89
711.56	20.02
711.88	18.72
712.20	13.56
712.52	-1.29
712.84	-10.33
713.16	6.46
713.48	-4.52
713.80	3.55
714.12	-1.61
714.44	10.01
714.76	14.53
715.08	-0.32
715.40	0.65
715.72	5.81
716.04	-14.85
716.36	-28.09
716.68	-23.24
717.00	-31.96
717.32	-21.95
717.64	-12.91
717.96	-17.43
718.28	16.46
718.60	38.42
718.92	38.42
719.24	31.64
719.56	42.29
719.88	19.69
720.20	4.84
720.52	-6.13
720.84	-28.73
721.16	-18.08
721.48	-3.87
721.80	-21.31
722.12	-25.50
722.44	-9.68
722.76	-10.98
723.08	-5.17
723.40	-23.24
723.72	-34.54
724.03	-22.92
724.35	-2.91
724.67	1.94
724.99	0.97
725.31	5.81
725.63	6.46
725.95	3.87
726.27	-19.37
726.58	-20.66
726.90	-18.08
727.22	0.32
727.54	-9.36
727.86	-14.20
728.18	-5.17
728.50	6.78
728.81	7.43
729.13	6.46
729.45	-10.01
729.77	10.01
730.09	21.31
730.40	4.20
730.72	12.59
731.04	-17.43
731.36	-11.94
731.68	-7.43
731.99	-23.89
732.31	-30.99
732.63	-18.72
732.95	-17.11
733.27	-4.52
733.58	-12.27
733.90	-7.75
734.22	-0.97
734.54	13.88
734.85	27.12
735.17	29.05
735.49	29.38
735.80	15.17
736.12	-3.55
736.44	-13.56
736.76	-23.89
737.07	-31.31
737.39	-38.74
737.71	-27.12
738.02	-20.02
738.34	-15.82
738.66	-13.88
738.97	-29.70
739.29	-39.06
739.61	-41.00
739.93	-41.65
740.24	-49.07
740.56	-47.78
740.87	-38.09
741.19	-24.54
741.51	-20.02
741.82	-28.41
742.14	-31.31
742.46	-19.69
742.77	-26.47
743.09	-16.14
743.41	-21.31
743.72	-19.69
744.04	-12.91
744.35	-12.91
744.67	-20.34
744.99	-19.05
745.30	-42.94
745.62	-30.35
745.93	-24.54
746.25	-40.03
746.56	-31.96
746.88	-28.73
747.20	-12.59
747.51	4.52
747.83	0.97
748.14	3.87
748.46	30.35
748.77	31.31
749.09	28.73
749.40	33.57
749.72	34.87
750.03	43.26
750.35	30.02
750.66	25.18
750.98	29.38
751.29	52.94
751.61	43.91
751.92	42.94
752.24	32.93
752.55	30.35
752.87	17.43
753.18	0.32
753.50	-21.31
753.81	-19.05
754.13	-29.05
754.44	-32.28
754.76	-30.67
755.07	-20.02
755.38	-15.82
755.70	-14.20
756.01	-28.09
756.33	-23.24
756.64	-18.72
756.95	-14.53
757.27	-24.21
757.58	-22.28
757.90	-15.17
758.21	4.52
758.52	14.85
758.84	6.46
759.15	20.66
759.47	57.79
759.78	56.17
760.09	57.14
760.41	47.78
760.72	53.91
761.03	59.72
761.35	36.48
761.66	-1.29
761.97	-4.20
762.29	-12.91
762.60	-19.37
762.91	-33.57
763.23	-25.50
763.54	-11.62
763.85	-0.32
764.17	6.13
764.48	16.46
764.79	13.56
765.10	16.79
765.42	7.43
765.73	12.59
766.04	13.56
766.36	15.82
766.67	3.87
766.98	5.17
767.29	-3.87
767.61	7.10
767.92	1.61
768.23	-4.20
768.54	-15.82
768.86	5.81
769.17	19.69
769.48	26.15
769.79	30.67
770.10	22.60
770.42	6.13
770.73	12.59
771.04	-0.32
771.35	-5.17
771.66	-12.27
771.98	-22.60
772.29	-11.30
772.60	-5.81
772.91	5.81
773.22	6.46
773.53	3.87
773.85	23.24
774.16	19.37
774.47	21.31
774.78	42.29
775.09	37.13
775.40	26.80
775.71	30.99
776.02	20.66
776.34	25.18
776.65	36.16
776.96	35.83
777.27	26.15
777.58	37.77
777.89	28.09
778.20	17.11
778.51	7.75
778.82	-13.56
779.13	-12.27
779.44	-1.61
779.75	-7.75
780.06	-10.01
780.38	5.81
780.69	11.30
781.00	13.88
781.31	11.94
781.62	4.52
781.93	-6.46
782.24	-8.07
782.55	-12.27
782.86	-14.53
783.17	-2.26
783.48	-16.79
783.79	-16.14
784.10	-14.85
784.41	-6.46
784.72	-13.56
785.03	-16.14
785.34	-23.24
785.65	-18.08
785.96	-15.50
786.27	-13.88
786.57	-30.02
786.88	-21.63
787.19	-9.04
787.50	-13.88
787.81	-17.11
788.12	-32.61
788.43	-16.46
788.74	1.29
789.05	-10.98
789.36	-19.37
789.67	-15.17
789.98	-0.97
790.29	7.43
790.59	-1.29
790.90	-4.52
791.21	2.26
791.52	6.13
791.83	-7.43
792.14	-8.07
792.45	-4.52
792.75	0.00
793.06	-2.26
793.37	3.23
793.68	-3.55
793.99	-3.23
794.30	-21.63
794.60	-14.20
794.91	-10.65
795.22	-1.29
795.53	-16.14
795.84	-15.17
796.15	-10.65
796.45	1.29
796.76	12.91
797.07	-4.84
797.38	-25.18
797.68	-24.54
797.99	-25.18
798.30	2.58
798.61	1.61
798.91	-22.60
799.22	-6.46
799.53	18.72
799.84	25.18
800.14	32.61
800.45	0.65
800.76	13.24
801.07	32.61
801.37	28.41
801.68	0.97
801.99	-11.30
802.29	-6.78
802.60	-4.52
802.91	-13.24
803.22	-36.16
803.52	-42.29
803.83	-19.37
804.14	-17.11
804.44	-30.02
804.75	-23.57
805.06	-41.97
805.36	-53.91
805.67	-62.31
805.97	-70.38
806.28	-51.33
806.59	-40.35
806.89	-45.20
807.20	-40.03
807.51	-18.08
807.81	5.81
808.12	7.75
808.42	-2.91
808.73	-1.29
809.04	4.84
809.34	20.34
809.65	38.42
809.95	22.60
810.26	43.58
810.56	52.94
810.87	47.46
811.18	64.57
811.48	61.02
811.79	27.44
812.09	35.51
812.40	14.85
812.70	3.23
813.01	-7.10
813.31	-36.48
813.62	-38.74
813.92	-14.85
814.23	-17.76
814.53	-13.24
814.84	11.30
815.14	13.24
815.45	22.92
815.75	2.91
816.06	8.72
816.36	25.50
816.67	18.08
816.97	9.36
817.28	14.53
817.58	16.79
817.89	36.80
818.19	21.63
818.49	8.72
818.80	23.89
819.10	4.52
819.41	8.39
819.71	14.20
820.01	7.10
820.32	5.81
820.62	-13.56
820.93	-31.64
821.23	-19.69
821.53	-15.17
821.84	-9.68
822.14	-11.62
822.45	-23.57
822.75	-3.55
823.05	0.32
823.36	0.65
823.66	0.00
823.96	-14.53
824.27	-11.94
824.57	16.79
824.87	19.69
825.18	31.96
825.48	47.13
825.78	47.46
826.09	58.76
826.39	66.83
826.69	49.39
827.00	35.19
827.30	31.64
827.60	11.62
827.90	14.20
828.21	17.43
828.51	21.63
828.81	2.58
829.11	18.08
829.42	9.68
829.72	11.94
830.02	-2.91
830.32	-10.33
830.63	-8.72
830.93	7.10
831.23	-6.78
831.53	0.00
831.84	4.84
832.14	12.59
832.44	1.94
832.74	-9.04
833.04	-14.20
833.35	-15.50
833.65	-16.79
833.95	-25.50
834.25	-31.31
834.55	-22.60
834.85	-11.62
835.16	16.79
835.46	10.33
835.76	12.59
836.06	20.66
836.36	19.37
836.66	21.63
836.96	19.37
837.26	-2.58
837.57	11.62
837.87	-8.72
838.17	-10.98
838.47	-0.97
838.77	-9.68
839.07	-30.02
839.37	-19.05
839.67	-26.15
839.97	-18.08
840.27	-25.18
840.57	-30.67
840.88	-28.09
841.18	-4.84
841.48	-22.28
841.78	-16.79
842.08	2.91
842.38	3.55
842.68	4.52
842.98	6.13
843.28	0.65
843.58	18.72
843.88	23.89
844.18	10.98
844.48	21.63
844.78	27.12
845.08	40.35
845.38	41.32
845.68	27.76
845.98	20.66
846.28	12.91
846.58	1.94
846.88	0.97
847.18	-25.83
847.48	-36.80
847.78	-23.57
848.07	-14.85
848.37	-19.05
848.67	-5.17
848.97	-10.01
849.27	16.14
849.57	19.05
849.87	15.50
850.17	7.10
850.47	12.27
850.77	-8.72
851.07	-16.46
851.36	-41.65
851.66	-41.32
851.96	-43.58
852.26	-45.20
852.56	-35.83
852.86	-8.72
853.16	-3.55
853.45	10.01
853.75	10.65
854.05	-0.32
854.35	3.87
854.65	-2.91
854.95	-28.09
855.24	-21.31
855.54	-4.84
855.84	-2.91
856.14	8.72
856.44	15.82
856.73	27.76
857.03	52.62
857.33	54.88
857.63	33.57
857.93	37.13
858.22	32.61
858.52	24.21
858.82	14.53
859.12	7.75
859.41	3.23
859.71	24.54
860.01	16.46
860.30	21.95
860.60	27.12
860.90	27.12
861.20	19.69
861.49	10.98
861.79	-2.26
862.09	19.05
862.38	15.50
862.68	15.82
862.98	27.44
863.27	27.44
863.57	49.72
863.87	47.46
864.16	24.21
864.46	36.16
864.76	29.70
865.05	6.46
865.35	-6.78
865.65	-10.01
865.94	-3.87
866.24	0.97
866.54	-13.56
866.83	-5.81
867.13	16.46
867.42	33.25
867.72	16.14
868.02	0.00
868.31	10.01
868.61	11.30
868.90	13.24
869.20	16.14
869.49	25.83
869.79	32.93
870.08	34.54
870.38	21.95
870.68	27.44
870.97	20.66
871.27	18.72
871.56	-9.04
871.86	-14.20
872.15	1.61
872.45	2.58
872.74	0.97
873.04	1.29
873.33	-9.04
873.63	-6.13
873.92	-10.01
874.22	-25.18
874.51	-13.24
874.81	-3.55
875.10	-5.49
875.40	-4.52
875.69	3.23
875.98	12.27
876.28	22.92
876.57	23.57
876.87	17.43
877.16	19.05
877.46	20.34
877.75	33.25
878.04	23.57
878.34	22.92
878.63	13.24
878.93	20.98
879.22	12.91
879.51	15.82
879.81	6.13
880.10	16.79
880.40	-3.23
880.69	-3.23
880.98	-23.57
881.28	-12.91
881.57	-12.91
881.86	-13.56
882.16	-29.38
882.45	-6.13
882.74	-5.81
883.04	11.94
883.33	14.85
883.62	7.43
883.92	83.61
884.21	40.68
884.50	-20.34
>>>>>End Processed Spectral Data<<<<<
