SpectraSuite Data File
++++++++++++++++++++++++++++++++++++
Date: Fri Feb 20 12:09:39 EST 2015
User: Administrator
Dark Spectrum Present: Yes
Reference Spectrum Present: No
Number of Sampled Component Spectra: 1
Spectrometers: SB2+H01071
Integration Time (usec): 5000000 (SB2+H01071)
Spectra Averaged: 1 (SB2+H01071)
Boxcar Smoothing: 3 (SB2+H01071)
Correct for Electrical Dark: No (SB2+H01071)
Strobe/Lamp Enabled: Yes (SB2+H01071)
Correct for Detector Non-linearity: No (SB2+H01071)
Correct for Stray Light: No (SB2+H01071)
Number of Pixels in Processed Spectrum: 2048
>>>>>Begin Processed Spectral Data<<<<<
191.06	-97.17
191.43	-97.17
191.81	-97.17
192.19	-61.98
192.56	-48.10
192.94	-29.38
193.31	-33.25
193.69	-30.99
194.07	-29.05
194.44	-20.02
194.82	-4.52
195.19	-9.04
195.57	-20.98
195.95	-0.97
196.32	10.33
196.70	5.17
197.07	0.65
197.45	-18.40
197.83	-6.78
198.20	5.81
198.58	5.17
198.95	-5.49
199.33	11.30
199.70	-0.97
200.08	1.61
200.46	-3.23
200.83	5.49
201.21	4.84
201.58	12.59
201.96	14.53
202.33	45.52
202.71	56.50
203.09	51.65
203.46	15.82
203.84	15.50
204.21	20.02
204.59	10.33
204.96	0.32
205.34	-2.91
205.71	10.65
206.09	48.10
206.46	50.04
206.84	47.78
207.21	37.45
207.59	32.28
207.96	28.09
208.34	18.40
208.71	-5.17
209.09	-10.65
209.46	-25.18
209.84	-2.91
210.21	-3.87
210.59	-1.94
210.96	-4.84
211.34	-3.23
211.71	1.29
212.09	11.62
212.46	-5.49
212.84	-6.13
213.21	-29.70
213.59	-23.89
213.96	-14.20
214.34	-16.79
214.71	-17.76
215.08	-13.56
215.46	-8.39
215.83	12.27
216.21	16.79
216.58	3.23
216.96	15.17
217.33	21.95
217.70	27.12
218.08	20.66
218.45	1.29
218.83	-7.43
219.20	8.07
219.58	-9.68
219.95	-16.46
220.32	-15.82
220.70	-14.85
221.07	10.33
221.45	0.97
221.82	-10.33
222.19	-4.52
222.57	-18.08
222.94	-20.66
223.32	-30.02
223.69	-34.87
224.06	-28.09
224.44	-40.03
224.81	-40.03
225.18	-37.77
225.56	-33.57
225.93	-15.50
226.31	-11.62
226.68	-16.14
227.05	4.84
227.43	-0.65
227.80	17.43
228.17	20.34
228.55	3.87
228.92	-1.61
229.29	7.75
229.67	0.65
230.04	2.91
230.41	-6.13
230.79	-15.82
231.16	2.91
231.53	4.84
231.91	-1.94
232.28	2.26
232.65	9.68
233.03	6.46
233.40	27.12
233.77	4.20
234.15	14.20
234.52	25.83
234.89	34.87
235.26	34.87
235.64	38.09
236.01	20.66
236.38	53.27
236.76	43.91
237.13	18.08
237.50	2.91
237.87	-5.81
238.25	0.97
238.62	8.07
238.99	-7.43
239.36	-6.13
239.74	2.26
240.11	0.97
240.48	2.58
240.85	15.82
241.23	12.91
241.60	10.33
241.97	17.11
242.34	7.75
242.72	8.72
243.09	12.27
243.46	-17.43
243.83	-18.08
244.20	-25.50
244.58	-31.31
244.95	-13.56
245.32	-10.33
245.69	-10.33
246.07	8.39
246.44	-4.52
246.81	5.49
247.18	-0.32
247.55	1.61
247.92	-0.32
248.30	-6.46
248.67	-9.36
249.04	-1.29
249.41	-2.58
249.78	-11.94
250.16	2.58
250.53	10.33
250.90	13.88
251.27	27.12
251.64	17.76
252.01	22.28
252.39	35.19
252.76	33.90
253.13	31.31
253.50	16.79
253.87	-2.26
254.24	5.81
254.61	5.17
254.98	-15.17
255.36	-28.09
255.73	-34.22
256.10	-19.69
256.47	-15.50
256.84	-13.88
257.21	-24.54
257.58	-14.20
257.95	-17.76
258.33	-6.13
258.70	-22.60
259.07	-23.57
259.44	-19.05
259.81	-0.97
260.18	5.81
260.55	17.11
260.92	-6.46
261.29	3.87
261.66	-1.61
262.03	-6.46
262.40	-27.12
262.77	-10.33
263.15	-12.27
263.52	-0.32
263.89	13.24
264.26	10.98
264.63	6.46
265.00	12.91
265.37	10.98
265.74	4.52
266.11	10.65
266.48	10.33
266.85	13.56
267.22	17.11
267.59	9.68
267.96	6.46
268.33	-1.61
268.70	-1.61
269.07	-1.29
269.44	7.43
269.81	-1.29
270.18	14.85
270.55	-7.10
270.92	2.26
271.29	14.85
271.66	22.60
272.03	27.12
272.40	44.23
272.77	22.28
273.14	33.25
273.51	31.64
273.88	4.84
274.25	-9.36
274.62	-22.28
274.99	-31.64
275.36	-13.88
275.73	-9.36
276.10	1.29
276.47	13.24
276.84	21.95
277.21	15.82
277.58	13.56
277.94	20.34
278.31	28.09
278.68	18.40
279.05	0.65
279.42	-6.13
279.79	-0.65
280.16	-11.94
280.53	-31.64
280.90	-56.82
281.27	-57.14
281.64	-33.25
282.01	-39.06
282.37	-23.89
282.74	-7.75
283.11	12.27
283.48	20.66
283.85	20.66
284.22	23.89
284.59	23.89
284.96	8.39
285.33	8.39
285.69	-6.46
286.06	-6.46
286.43	7.10
286.80	9.04
287.17	21.31
287.54	34.87
287.91	27.44
288.27	39.39
288.64	48.10
289.01	40.35
289.38	29.38
289.75	26.80
290.12	31.96
290.48	32.61
290.85	30.02
291.22	14.85
291.59	-3.23
291.96	-8.07
292.33	-13.56
292.69	-25.50
293.06	-12.27
293.43	-17.76
293.80	0.32
294.17	22.60
294.53	22.92
294.90	25.83
295.27	22.28
295.64	28.09
296.01	41.00
296.37	37.77
296.74	30.35
297.11	39.06
297.48	37.77
297.84	31.96
298.21	28.41
298.58	17.11
298.95	5.49
299.31	-6.78
299.68	-9.68
300.05	-1.29
300.42	9.68
300.78	-10.01
301.15	-13.56
301.52	-16.46
301.89	5.49
302.25	3.55
302.62	-8.07
302.99	-4.20
303.35	-7.75
303.72	-1.29
304.09	0.65
304.46	-5.17
304.82	1.61
305.19	16.46
305.56	-0.00
305.92	16.14
306.29	19.69
306.66	18.72
307.02	-5.49
307.39	-26.47
307.76	-26.80
308.12	-13.24
308.49	-26.47
308.86	-31.64
309.23	-7.10
309.59	9.04
309.96	21.31
310.32	17.76
310.69	12.27
311.06	23.89
311.42	16.14
311.79	-3.55
312.16	-13.24
312.52	7.10
312.89	-13.24
313.26	-16.46
313.62	-21.95
313.99	-22.60
314.35	-20.66
314.72	-8.07
315.09	-17.43
315.45	-5.17
315.82	1.29
316.19	3.87
316.55	7.43
316.92	13.56
317.28	10.65
317.65	-9.04
318.02	-19.69
318.38	-31.96
318.75	-48.10
319.11	-38.42
319.48	-35.51
319.84	-41.32
320.21	-34.22
320.58	-12.59
320.94	19.37
321.31	26.47
321.67	21.95
322.04	11.94
322.40	9.04
322.77	11.62
323.13	16.79
323.50	-12.59
323.86	-8.72
324.23	0.32
324.60	12.27
324.96	30.02
325.33	11.30
325.69	-4.20
326.06	-5.81
326.42	-15.82
326.79	-34.54
327.15	-48.75
327.52	-57.14
327.88	-26.15
328.25	-24.21
328.61	-12.27
328.98	8.07
329.34	10.01
329.71	8.07
330.07	1.61
330.44	-15.50
330.80	-13.88
331.16	-34.54
331.53	-14.20
331.89	8.39
332.26	33.90
332.62	27.12
332.99	38.09
333.35	40.35
333.72	60.37
334.08	31.31
334.45	14.20
334.81	-5.81
335.17	-4.84
335.54	-9.04
335.90	-19.69
336.27	-21.95
336.63	-15.17
337.00	-13.88
337.36	-10.33
337.72	-1.29
338.09	-11.30
338.45	-4.20
338.82	0.65
339.18	-0.65
339.54	-6.13
339.91	-2.26
340.27	9.04
340.63	6.13
341.00	-6.13
341.36	0.97
341.73	-16.46
342.09	-16.14
342.45	-13.56
342.82	-10.98
343.18	10.65
343.54	25.83
343.91	16.79
344.27	40.35
344.63	41.97
345.00	38.09
345.36	37.77
345.72	24.86
346.09	15.17
346.45	22.60
346.81	16.46
347.18	30.99
347.54	39.06
347.90	21.31
348.27	26.15
348.63	27.44
348.99	11.62
349.36	-4.52
349.72	-17.43
350.08	-27.12
350.45	-30.02
350.81	-39.39
351.17	-29.38
351.53	-23.57
351.90	-4.20
352.26	-11.62
352.62	-7.10
352.98	-1.94
353.35	6.46
353.71	3.55
354.07	-1.61
354.44	-22.60
354.80	-14.85
355.16	-30.67
355.52	-30.99
355.88	-25.50
356.25	-36.16
356.61	-37.77
356.97	-31.96
357.33	-31.31
357.70	-12.59
358.06	-4.52
358.42	-14.20
358.78	-22.92
359.15	-23.24
359.51	-21.31
359.87	-38.74
360.23	-46.17
360.59	-40.68
360.95	-33.25
361.32	-13.56
361.68	-10.01
362.04	-20.34
362.40	-4.84
362.76	-1.61
363.13	-9.68
363.49	-10.01
363.85	-10.98
364.21	-22.92
364.57	-1.29
364.93	0.65
365.30	15.17
365.66	16.14
366.02	8.07
366.38	5.49
366.74	32.93
367.10	37.13
367.46	37.45
367.83	16.46
368.19	20.34
368.55	30.67
368.91	20.66
369.27	11.30
369.63	-1.29
369.99	-5.81
370.35	12.59
370.71	23.89
371.08	30.02
371.44	43.91
371.80	39.39
372.16	49.72
372.52	49.07
372.88	41.65
373.24	21.31
373.60	16.46
373.96	23.57
374.32	38.74
374.68	35.19
375.04	43.91
375.40	35.51
375.76	48.10
376.13	45.84
376.49	34.54
376.85	21.31
377.21	14.53
377.57	8.72
377.93	-0.97
378.29	-3.23
378.65	7.43
379.01	8.72
379.37	8.39
379.73	3.87
380.09	11.62
380.45	17.11
380.81	-4.20
381.17	-28.73
381.53	-18.72
381.89	-12.91
382.25	-5.81
382.61	-14.20
382.97	-13.56
383.33	-11.94
383.69	-2.26
384.05	-19.69
384.41	-10.65
384.77	-7.10
385.13	9.04
385.49	-2.58
385.85	8.07
386.20	21.95
386.56	11.62
386.92	-13.56
387.28	-22.28
387.64	-31.31
388.00	-32.28
388.36	-31.64
388.72	-38.09
389.08	-34.54
389.44	-32.28
389.80	-16.46
390.16	-25.83
390.52	-9.36
390.88	7.43
391.23	-8.39
391.59	14.53
391.95	12.91
392.31	-0.32
392.67	-7.10
393.03	11.62
393.39	-8.39
393.75	10.01
394.11	1.61
394.46	23.57
394.82	37.13
395.18	36.16
395.54	16.79
395.90	13.24
396.26	-8.07
396.62	-6.78
396.97	-19.37
397.33	-37.77
397.69	-32.61
398.05	-46.81
398.41	-30.67
398.77	-23.57
399.12	-24.54
399.48	-14.53
399.84	-8.07
400.20	-6.78
400.56	9.04
400.91	-9.04
401.27	-6.13
401.63	-10.65
401.99	-19.69
402.35	-21.31
402.70	-23.89
403.06	-27.12
403.42	-34.87
403.78	-34.87
404.14	-31.31
404.49	-43.58
404.85	-44.23
405.21	-43.91
405.57	-42.94
405.92	-16.79
406.28	-24.21
406.64	-35.51
407.00	-22.28
407.35	-11.94
407.71	-3.55
408.07	-5.81
408.43	-4.84
408.78	6.78
409.14	30.02
409.50	34.87
409.85	41.00
410.21	39.39
410.57	38.09
410.93	31.31
411.28	40.35
411.64	28.41
412.00	20.34
412.35	13.88
412.71	7.43
413.07	7.43
413.42	2.58
413.78	6.46
414.14	10.33
414.49	2.26
414.85	7.43
415.21	15.82
415.56	24.21
415.92	41.65
416.28	41.65
416.63	38.09
416.99	50.68
417.35	28.41
417.70	22.92
418.06	10.33
418.42	2.91
418.77	-14.20
419.13	-15.17
419.48	-13.24
419.84	-0.65
420.20	6.46
420.55	10.33
420.91	1.94
421.27	28.41
421.62	41.65
421.98	46.81
422.33	49.07
422.69	64.89
423.05	64.24
423.40	52.94
423.76	27.76
424.11	2.58
424.47	-7.43
424.82	17.11
425.18	-8.07
425.54	-4.20
425.89	-6.78
426.25	-7.10
426.60	0.32
426.96	-12.91
427.31	-32.61
427.67	-25.18
428.02	-24.21
428.38	-1.94
428.73	0.32
429.09	-4.52
429.44	2.26
429.80	7.10
430.15	5.81
430.51	7.43
430.86	6.46
431.22	12.27
431.57	25.83
431.93	35.51
432.28	23.57
432.64	7.75
432.99	16.46
433.35	18.08
433.70	-0.97
434.06	-1.94
434.41	-9.68
434.77	-10.33
435.12	13.24
435.48	-0.65
435.83	0.97
436.19	21.31
436.54	24.86
436.89	25.18
437.25	32.61
437.60	21.31
437.96	28.41
438.31	29.70
438.67	29.05
439.02	16.14
439.37	14.85
439.73	2.26
440.08	9.36
440.44	-3.87
440.79	-10.65
441.15	-25.83
441.50	-17.11
441.85	-19.37
442.21	-4.20
442.56	-16.14
442.91	-11.62
443.27	-9.36
443.62	1.94
443.98	0.32
444.33	-2.26
444.68	-11.62
445.04	3.23
445.39	26.80
445.74	18.40
446.10	9.04
446.45	1.61
446.80	35.19
447.16	32.93
447.51	27.12
447.86	2.58
448.22	9.04
448.57	4.84
448.92	-3.23
449.28	-36.16
449.63	-38.74
449.98	-39.39
450.34	-23.57
450.69	-27.44
451.04	-20.34
451.40	-9.36
451.75	-0.97
452.10	12.59
452.45	9.04
452.81	-1.94
453.16	-6.78
453.51	5.49
453.86	15.82
454.22	15.17
454.57	10.33
454.92	7.43
455.27	-5.81
455.63	-6.13
455.98	-11.62
456.33	-31.96
456.68	-46.17
457.04	-60.37
457.39	-55.53
457.74	-38.09
458.09	-41.00
458.45	-45.84
458.80	-43.58
459.15	-15.50
459.50	-13.24
459.85	-25.50
460.21	-16.14
460.56	-12.59
460.91	-5.49
461.26	-12.59
461.61	-30.67
461.97	-34.22
462.32	-22.92
462.67	-47.78
463.02	-35.83
463.37	-37.77
463.72	-28.41
464.08	-20.98
464.43	-28.09
464.78	-15.50
465.13	2.58
465.48	0.32
465.83	-0.32
466.18	3.87
466.54	8.72
466.89	8.72
467.24	8.72
467.59	-2.58
467.94	-4.84
468.29	-3.23
468.64	1.94
468.99	-7.10
469.34	3.87
469.70	-4.84
470.05	3.87
470.40	6.13
470.75	-5.49
471.10	-13.88
471.45	-30.02
471.80	-28.73
472.15	-27.44
472.50	-31.64
472.85	-37.13
473.20	-33.25
473.55	-24.21
473.90	-15.17
474.25	-25.18
474.61	-23.89
474.96	-19.37
475.31	-23.24
475.66	-21.31
476.01	-28.41
476.36	-13.88
476.71	20.02
477.06	29.05
477.41	51.01
477.76	51.98
478.11	65.21
478.46	81.68
478.81	75.22
479.16	49.39
479.51	35.51
479.86	16.14
480.21	25.83
480.56	12.91
480.91	-3.87
481.26	4.20
481.61	15.17
481.96	20.98
482.31	4.52
482.66	-12.27
483.00	-7.75
483.35	-2.26
483.70	-10.98
484.05	-15.50
484.40	-19.69
484.75	-16.79
485.10	-4.20
485.45	0.00
485.80	3.87
486.15	13.24
486.50	7.43
486.85	-1.29
487.20	-0.65
487.55	-9.04
487.89	-27.76
488.24	-38.09
488.59	-34.22
488.94	-32.61
489.29	-25.50
489.64	-19.37
489.99	-7.75
490.34	0.32
490.68	-1.29
491.03	-10.98
491.38	-1.94
491.73	-3.87
492.08	4.52
492.43	9.68
492.78	18.40
493.12	28.41
493.47	13.88
493.82	1.29
494.17	11.30
494.52	-3.23
494.87	-11.62
495.21	-31.96
495.56	-29.70
495.91	-7.43
496.26	9.36
496.61	9.04
496.95	9.04
497.30	19.37
497.65	31.64
498.00	11.94
498.35	4.52
498.69	0.65
499.04	-4.84
499.39	-8.39
499.74	-19.05
500.08	-18.08
500.43	7.75
500.78	9.04
501.13	-7.10
501.48	1.29
501.82	22.28
502.17	30.99
502.52	45.84
502.86	21.63
503.21	17.43
503.56	27.44
503.91	3.87
504.25	-4.20
504.60	-13.88
504.95	-29.05
505.30	2.58
505.64	15.17
505.99	11.62
506.34	31.31
506.68	22.60
507.03	25.18
507.38	35.19
507.72	21.31
508.07	3.55
508.42	18.40
508.76	4.84
509.11	16.79
509.46	23.24
509.80	20.66
510.15	19.37
510.50	22.28
510.84	12.59
511.19	25.50
511.54	10.65
511.88	8.39
512.23	10.98
512.57	15.82
512.92	16.79
513.27	20.98
513.61	23.24
513.96	32.28
514.31	12.91
514.65	1.61
515.00	-6.13
515.34	0.65
515.69	-6.78
516.03	-8.39
516.38	-10.98
516.73	-1.29
517.07	-11.30
517.42	-7.10
517.76	-17.43
518.11	3.55
518.45	-6.13
518.80	-2.58
519.15	1.61
519.49	19.69
519.84	13.24
520.18	1.61
520.53	-33.90
520.87	-26.15
521.22	-50.36
521.56	-56.50
521.91	-61.34
522.25	-58.76
522.60	-37.45
522.94	-5.49
523.29	-5.49
523.63	19.69
523.98	19.37
524.32	22.92
524.67	13.56
525.01	3.87
525.36	-13.24
525.70	-25.50
526.05	-28.41
526.39	-27.12
526.74	-30.02
527.08	-20.02
527.43	-36.80
527.77	-43.91
528.12	-30.67
528.46	-9.36
528.80	-20.66
529.15	-10.98
529.49	-17.43
529.84	19.69
530.18	41.32
530.53	22.92
530.87	16.14
531.21	40.68
531.56	35.51
531.90	35.19
532.25	18.72
532.59	16.79
532.93	18.40
533.28	13.56
533.62	11.30
533.97	0.00
534.31	4.84
534.65	7.10
535.00	3.23
535.34	17.76
535.68	16.46
536.03	-0.32
536.37	9.36
536.71	7.43
537.06	10.33
537.40	-5.81
537.74	-16.14
538.09	-26.80
538.43	-20.66
538.77	-25.50
539.12	-20.66
539.46	-29.70
539.80	-22.60
540.15	-23.57
540.49	-9.04
540.83	1.94
541.18	9.68
541.52	6.46
541.86	9.04
542.20	9.36
542.55	36.16
542.89	34.87
543.23	29.38
543.58	25.50
543.92	17.76
544.26	20.98
544.60	22.92
544.95	2.91
545.29	-16.14
545.63	-21.63
545.97	-26.47
546.32	-14.53
546.66	-8.39
547.00	1.29
547.34	1.29
547.68	18.40
548.03	16.46
548.37	0.97
548.71	1.29
549.05	-8.72
549.39	-14.20
549.74	-20.34
550.08	-31.31
550.42	-34.22
550.76	-25.50
551.10	-47.46
551.45	-37.13
551.79	-38.74
552.13	-35.83
552.47	-28.09
552.81	-12.59
553.15	-1.94
553.50	4.52
553.84	3.23
554.18	4.84
554.52	24.54
554.86	21.63
555.20	15.50
555.54	10.65
555.88	20.34
556.23	-4.84
556.57	-7.10
556.91	-36.48
557.25	-30.02
557.59	-41.00
557.93	-31.31
558.27	-19.69
558.61	-4.52
558.95	3.55
559.29	25.50
559.64	11.62
559.98	-2.91
560.32	-4.52
560.66	-19.05
561.00	-0.65
561.34	-10.65
561.68	-18.72
562.02	-1.94
562.36	29.05
562.70	22.60
563.04	25.18
563.38	15.82
563.72	10.65
564.06	13.56
564.40	14.85
564.74	8.07
565.08	13.24
565.42	-1.29
565.76	-10.65
566.10	-1.61
566.44	-16.14
566.78	-34.87
567.12	-25.83
567.46	-18.40
567.80	-7.10
568.14	-2.26
568.48	4.20
568.82	14.85
569.16	3.23
569.50	5.17
569.84	-14.20
570.18	1.94
570.52	15.50
570.86	15.82
571.20	14.85
571.54	32.61
571.88	25.50
572.22	28.41
572.55	11.30
572.89	-3.23
573.23	1.94
573.57	-11.94
573.91	-9.04
574.25	-21.95
574.59	-9.04
574.93	3.23
575.27	2.58
575.61	-22.28
575.94	-10.98
576.28	-16.46
576.62	-2.58
576.96	-8.72
577.30	-3.55
577.64	7.10
577.98	7.10
578.32	30.99
578.65	34.87
578.99	27.12
579.33	27.76
579.67	17.43
580.01	17.43
580.35	25.18
580.68	10.98
581.02	1.61
581.36	2.26
581.70	-7.10
582.04	-5.49
582.37	-14.85
582.71	-21.63
583.05	-17.11
583.39	-21.95
583.73	-36.16
584.06	-28.73
584.40	-26.80
584.74	-15.82
585.08	-17.11
585.41	-23.57
585.75	-11.62
586.09	-0.97
586.43	-4.52
586.76	-6.13
587.10	-18.08
587.44	5.49
587.78	-1.94
588.11	-4.52
588.45	-1.29
588.79	-18.72
589.13	-14.85
589.46	-13.88
589.80	-30.99
590.14	-21.31
590.47	-21.31
590.81	-31.31
591.15	-15.17
591.48	-25.50
591.82	-25.18
592.16	-29.70
592.50	-37.13
592.83	-40.35
593.17	-30.67
593.51	-32.61
593.84	-31.96
594.18	-33.25
594.51	1.29
594.85	15.82
595.19	24.86
595.52	30.99
595.86	33.57
596.20	48.10
596.53	48.10
596.87	25.50
597.21	7.43
597.54	15.82
597.88	13.24
598.21	20.34
598.55	13.88
598.89	10.65
599.22	0.00
599.56	4.52
599.89	-5.49
600.23	-1.94
600.57	-10.33
600.90	-19.05
601.24	-18.08
601.57	-5.17
601.91	-10.65
602.24	-18.72
602.58	-21.31
602.91	-23.24
603.25	-13.24
603.58	-14.85
603.92	-22.28
604.26	-7.43
604.59	-4.52
604.93	-3.23
605.26	8.72
605.60	2.58
605.93	16.46
606.27	7.43
606.60	-4.20
606.94	7.75
607.27	6.13
607.61	5.81
607.94	10.33
608.28	-0.65
608.61	10.01
608.95	15.50
609.28	25.83
609.61	28.41
609.95	20.66
610.28	21.63
610.62	10.98
610.95	7.10
611.29	7.75
611.62	-14.20
611.96	-34.22
612.29	-27.76
612.62	-33.25
612.96	-23.24
613.29	-13.56
613.63	-7.75
613.96	9.36
614.29	32.61
614.63	32.61
614.96	33.25
615.30	38.74
615.63	36.16
615.96	22.28
616.30	7.10
616.63	-7.75
616.97	4.52
617.30	9.68
617.63	6.46
617.97	10.98
618.30	22.60
618.63	23.57
618.97	26.80
619.30	13.24
619.63	13.24
619.97	15.82
620.30	4.52
620.63	-3.23
620.97	-6.13
621.30	2.91
621.63	-15.82
621.97	-9.04
622.30	-0.00
622.63	9.04
622.96	16.79
623.30	17.43
623.63	14.85
623.96	34.22
624.30	19.69
624.63	10.98
624.96	0.65
625.29	-13.88
625.63	-11.94
625.96	-5.17
626.29	-6.46
626.62	-1.29
626.96	-5.17
627.29	0.32
627.62	11.94
627.95	18.08
628.28	16.79
628.62	19.05
628.95	9.36
629.28	6.46
629.61	23.24
629.95	19.69
630.28	20.66
630.61	23.57
630.94	28.41
631.27	36.16
631.60	47.78
631.94	37.45
632.27	48.10
632.60	42.94
632.93	26.47
633.26	13.56
633.59	20.66
633.93	13.88
634.26	16.79
634.59	6.46
634.92	17.11
635.25	26.47
635.58	16.46
635.91	-1.29
636.24	-11.30
636.58	-13.88
636.91	-14.20
637.24	-34.87
637.57	-42.29
637.90	-25.18
638.23	-12.27
638.56	-12.27
638.89	-5.17
639.22	-8.07
639.55	-0.32
639.88	4.52
640.22	1.94
640.55	-9.68
640.88	11.94
641.21	-9.04
641.54	-1.29
641.87	7.75
642.20	-0.97
642.53	-10.01
642.86	-2.58
643.19	-7.75
643.52	-10.65
643.85	-23.89
644.18	-27.76
644.51	-29.70
644.84	-15.82
645.17	-9.04
645.50	-29.70
645.83	-13.56
646.16	-0.32
646.49	-6.78
646.82	12.59
647.15	-4.84
647.48	-11.30
647.81	8.07
648.14	10.33
648.47	-2.91
648.80	-6.13
649.13	-9.68
649.46	-6.46
649.79	-2.26
650.11	4.20
650.44	-0.65
650.77	-5.49
651.10	7.75
651.43	5.81
651.76	0.32
652.09	-14.85
652.42	-26.80
652.75	-41.32
653.08	-33.25
653.41	-36.16
653.73	-44.87
654.06	-34.87
654.39	-33.57
654.72	-32.61
655.05	-22.60
655.38	-23.57
655.71	-20.66
656.04	-6.46
656.36	4.52
656.69	10.01
657.02	5.17
657.35	-5.49
657.68	0.32
658.01	-11.62
658.33	-11.94
658.66	-20.66
658.99	-18.72
659.32	-13.56
659.65	8.07
659.97	8.07
660.30	0.97
660.63	-6.78
660.96	-4.20
661.29	3.55
661.61	-6.46
661.94	-14.20
662.27	-2.26
662.60	15.50
662.92	6.13
663.25	-2.26
663.58	-5.17
663.91	0.32
664.23	4.52
664.56	-3.23
664.89	-15.82
665.22	-18.72
665.54	-8.39
665.87	-12.27
666.20	-23.57
666.53	-41.97
666.85	-48.42
667.18	-41.00
667.51	-36.80
667.83	-54.24
668.16	-46.81
668.49	-48.10
668.81	-46.81
669.14	-38.42
669.47	-24.54
669.79	-16.46
670.12	1.61
670.45	-4.84
670.77	4.20
671.10	11.62
671.43	7.43
671.75	-3.23
672.08	-3.87
672.41	-22.60
672.73	-20.98
673.06	-17.43
673.39	-9.04
673.71	-25.83
674.04	-34.54
674.36	-28.41
674.69	-7.43
675.02	-2.91
675.34	5.49
675.67	0.32
675.99	15.82
676.32	33.90
676.64	21.31
676.97	24.86
677.30	28.09
677.62	19.37
677.95	34.54
678.27	28.73
678.60	17.43
678.92	25.50
679.25	13.24
679.57	-1.61
679.90	-1.94
680.22	-10.65
680.55	-5.49
680.88	-18.72
681.20	-26.47
681.53	-15.17
681.85	-6.78
682.18	2.26
682.50	-6.46
682.83	-0.97
683.15	11.30
683.47	16.14
683.80	-0.00
684.12	-5.17
684.45	-13.56
684.77	-11.30
685.10	-30.67
685.42	-33.57
685.75	-31.96
686.07	-31.64
686.40	-30.67
686.72	-23.89
687.04	-21.63
687.37	-8.39
687.69	9.36
688.02	4.84
688.34	19.05
688.67	31.64
688.99	15.17
689.31	21.31
689.64	31.96
689.96	31.64
690.28	46.17
690.61	47.13
690.93	60.69
691.26	71.67
691.58	59.72
691.90	46.49
692.23	19.37
692.55	9.68
692.87	1.94
693.20	-21.95
693.52	-18.40
693.84	-25.50
694.17	-23.57
694.49	-14.53
694.81	-12.27
695.14	-11.62
695.46	-16.46
695.78	-26.47
696.11	-30.35
696.43	-27.76
696.75	-24.86
697.08	-26.47
697.40	-29.70
697.72	-14.20
698.04	-8.72
698.37	5.49
698.69	3.55
699.01	15.17
699.33	13.88
699.66	16.46
699.98	17.76
700.30	22.60
700.62	19.37
700.95	6.46
701.27	8.07
701.59	1.29
701.91	-0.65
702.24	-18.08
702.56	-9.68
702.88	1.29
703.20	11.62
703.52	4.20
703.85	10.98
704.17	5.81
704.49	5.81
704.81	-18.08
705.13	-19.37
705.45	-14.53
705.78	-20.02
706.10	-30.99
706.42	-52.94
706.74	-29.38
707.06	-15.50
707.38	-15.50
707.71	-21.63
708.03	-22.92
708.35	-17.11
708.67	-3.55
708.99	-36.48
709.31	-39.39
709.63	-39.06
709.95	-30.67
710.27	-29.70
710.60	-7.10
710.92	-7.43
711.24	-2.91
711.56	-5.81
711.88	-17.43
712.20	-38.74
712.52	-46.49
712.84	-61.02
713.16	-37.45
713.48	-28.09
713.80	-27.76
714.12	-24.21
714.44	-0.32
714.76	18.72
715.08	17.76
715.40	14.20
715.72	-1.94
716.04	-7.43
716.36	-2.26
716.68	4.20
717.00	-3.87
717.32	1.94
717.64	3.55
717.96	21.95
718.28	47.46
718.60	41.65
718.92	30.67
719.24	13.88
719.56	19.69
719.88	7.10
720.20	8.07
720.52	-8.07
720.84	-24.54
721.16	-19.05
721.48	17.43
721.80	7.43
722.12	9.36
722.44	13.56
722.76	19.05
723.08	18.72
723.40	11.94
723.72	-19.69
724.03	-12.91
724.35	4.20
724.67	4.84
724.99	13.56
725.31	30.35
725.63	37.13
725.95	32.28
726.27	5.81
726.58	0.97
726.90	1.29
727.22	-5.17
727.54	-13.56
727.86	-22.60
728.18	4.52
728.50	19.69
728.81	21.31
729.13	22.92
729.45	10.98
729.77	31.31
730.09	49.72
730.40	20.34
730.72	24.54
731.04	-6.78
731.36	-6.46
731.68	8.39
731.99	-4.52
732.31	-33.57
732.63	-34.54
732.95	-35.19
733.27	-9.68
733.58	-12.27
733.90	-30.02
734.22	-27.44
734.54	-14.53
734.85	-5.81
735.17	-3.23
735.49	-0.65
735.80	-7.10
736.12	3.55
736.44	-11.30
736.76	-9.68
737.07	4.52
737.39	-1.29
737.71	-6.78
738.02	-1.29
738.34	0.00
738.66	17.43
738.97	8.07
739.29	-10.33
739.61	-3.87
739.93	-2.58
740.24	-18.72
740.56	-34.22
740.87	-39.71
741.19	-39.71
741.51	-29.38
741.82	-47.13
742.14	-35.83
742.46	-31.96
742.77	-36.16
743.09	-30.35
743.41	-36.16
743.72	-40.03
744.04	-33.57
744.35	-36.16
744.67	-32.28
744.99	-15.50
745.30	-24.86
745.62	5.17
745.93	13.56
746.25	8.39
746.56	0.32
746.88	3.55
747.20	13.88
747.51	15.82
747.83	6.13
748.14	2.91
748.46	7.75
748.77	-0.32
749.09	-0.97
749.40	1.61
749.72	3.23
750.03	-3.55
750.35	-10.98
750.66	-2.26
750.98	8.39
751.29	16.79
751.61	-2.91
751.92	7.10
752.24	8.07
752.55	21.63
752.87	13.24
753.18	-6.46
753.50	-20.34
753.81	-12.91
754.13	-23.57
754.44	-25.18
754.76	-26.47
755.07	-21.95
755.38	-20.66
755.70	-24.86
756.01	-35.51
756.33	-36.16
756.64	-30.35
756.95	-43.26
757.27	-56.50
757.58	-35.51
757.90	-12.27
758.21	3.55
758.52	6.46
758.84	4.84
759.15	22.60
759.47	40.68
759.78	39.06
760.09	33.57
760.41	38.42
760.72	61.98
761.03	41.97
761.35	27.12
761.66	13.88
761.97	17.43
762.29	3.87
762.60	0.32
762.91	-29.70
763.23	-8.39
763.54	7.10
763.85	28.41
764.17	30.99
764.48	45.84
764.79	27.76
765.10	39.71
765.42	41.32
765.73	34.54
766.04	23.89
766.36	4.52
766.67	0.00
766.98	17.11
767.29	3.55
767.61	10.33
767.92	11.94
768.23	13.24
768.54	22.60
768.86	8.39
769.17	10.01
769.48	21.31
769.79	16.46
770.10	8.07
770.42	2.58
770.73	8.07
771.04	11.94
771.35	3.87
771.66	1.94
771.98	-10.65
772.29	-16.79
772.60	-30.35
772.91	-35.51
773.22	-24.54
773.53	-17.76
773.85	-5.17
774.16	-0.65
774.47	7.10
774.78	19.69
775.09	28.73
775.40	16.46
775.71	20.34
776.02	10.01
776.34	19.05
776.65	37.13
776.96	47.46
777.27	41.00
777.58	53.59
777.89	53.27
778.20	42.29
778.51	40.03
778.82	24.86
779.13	28.41
779.44	32.61
779.75	29.38
780.06	21.31
780.38	20.98
780.69	14.53
781.00	13.88
781.31	13.88
781.62	4.52
781.93	5.17
782.24	-5.17
782.55	6.13
782.86	6.13
783.17	6.46
783.48	-12.27
783.79	-14.85
784.10	-14.85
784.41	-12.27
784.72	-21.63
785.03	-25.83
785.34	-28.41
785.65	-28.09
785.96	-25.83
786.27	-29.70
786.57	-24.21
786.88	-20.66
787.19	-19.69
787.50	-21.95
787.81	-22.60
788.12	-25.18
788.43	-9.68
788.74	-4.20
789.05	-12.59
789.36	-16.46
789.67	-15.17
789.98	-1.94
790.29	3.87
790.59	-14.85
790.90	-21.31
791.21	-15.82
791.52	-7.43
791.83	10.01
792.14	11.94
792.45	10.01
792.75	14.85
793.06	-2.91
793.37	0.97
793.68	-5.17
793.99	-28.73
794.30	-36.48
794.60	-30.99
794.91	-25.83
795.22	10.33
795.53	8.72
795.84	15.17
796.15	21.95
796.45	26.80
796.76	41.32
797.07	29.38
797.38	2.26
797.68	-7.75
797.99	-7.75
798.30	6.13
798.61	-8.39
798.91	-36.16
799.22	-20.98
799.53	-7.10
799.84	1.94
800.14	16.46
800.45	5.17
800.76	26.80
801.07	38.42
801.37	18.72
801.68	9.04
801.99	8.07
802.29	7.75
802.60	6.78
802.91	-7.75
803.22	-15.17
803.52	4.20
803.83	6.78
804.14	9.36
804.44	-1.94
804.75	0.65
805.06	-0.32
805.36	-6.13
805.67	-29.05
805.97	-19.05
806.28	-7.75
806.59	11.94
806.89	0.65
807.20	-10.01
807.51	1.29
807.81	19.37
808.12	0.65
808.42	-19.37
808.73	-50.04
809.04	-35.19
809.34	-20.98
809.65	-17.43
809.95	-25.50
810.26	-2.58
810.56	4.20
810.87	12.91
811.18	14.53
811.48	11.94
811.79	-10.01
812.09	-9.36
812.40	-14.20
812.70	-19.05
813.01	-30.67
813.31	-43.91
813.62	-38.42
813.92	-14.85
814.23	-17.43
814.53	-27.44
814.84	2.58
815.14	-7.75
815.45	-12.27
815.75	-6.78
816.06	4.84
816.36	21.31
816.67	32.28
816.97	20.98
817.28	43.58
817.58	61.02
817.89	36.48
818.19	19.05
818.49	15.50
818.80	16.14
819.10	-6.13
819.41	-11.30
819.71	-26.15
820.01	-3.55
820.32	0.65
820.62	-11.94
820.93	-35.19
821.23	-7.75
821.53	2.26
821.84	20.02
822.14	20.02
822.45	11.30
822.75	9.68
823.05	25.83
823.36	28.73
823.66	19.05
823.96	6.78
824.27	-5.49
824.57	11.94
824.87	25.83
825.18	29.05
825.48	10.01
825.78	19.05
826.09	25.18
826.39	42.61
826.69	26.47
827.00	12.59
827.30	10.65
827.60	9.68
827.90	3.23
828.21	11.30
828.51	18.08
828.81	0.97
829.11	12.91
829.42	8.72
829.72	9.04
830.02	8.07
830.32	4.52
830.63	-8.72
830.93	11.30
831.23	3.87
831.53	3.23
831.84	6.46
832.14	10.33
832.44	9.36
832.74	-1.61
833.04	-10.65
833.35	-11.30
833.65	12.27
833.95	7.75
834.25	8.07
834.55	-0.32
834.85	7.75
835.16	22.92
835.46	19.37
835.76	4.84
836.06	-3.55
836.36	-4.84
836.66	-7.43
836.96	-6.78
837.26	-15.17
837.57	-9.04
837.87	-27.76
838.17	-3.23
838.47	-8.39
838.77	-10.98
839.07	-26.15
839.37	-15.82
839.67	-13.88
839.97	-1.94
840.27	-13.56
840.57	-12.91
840.88	-3.55
841.18	24.86
841.48	28.41
841.78	27.12
842.08	29.38
842.38	20.98
842.68	25.83
842.98	23.24
843.28	9.68
843.58	3.87
843.88	3.23
844.18	0.32
844.48	13.24
844.78	14.53
845.08	30.67
845.38	25.50
845.68	12.27
845.98	7.10
846.28	-5.17
846.58	-10.98
846.88	-23.24
847.18	-38.09
847.48	-38.74
847.78	-29.70
848.07	-19.05
848.37	-23.89
848.67	-15.50
848.97	-11.62
849.27	-9.04
849.57	0.00
849.87	-3.87
850.17	-14.85
850.47	7.43
850.77	-6.78
851.07	-6.13
851.36	-10.65
851.66	-18.08
851.96	-31.64
852.26	-26.15
852.56	-24.86
852.86	-11.30
853.16	-16.46
853.45	-19.69
853.75	-11.94
854.05	-6.46
854.35	-12.59
854.65	-26.47
854.95	-43.26
855.24	-28.73
855.54	-13.56
855.84	-10.33
856.14	-3.87
856.44	10.98
856.73	32.93
857.03	52.30
857.33	50.68
857.63	44.23
857.93	39.39
858.22	50.36
858.52	43.91
858.82	22.28
859.12	20.98
859.41	15.50
859.71	27.76
860.01	24.54
860.30	35.51
860.60	35.83
860.90	53.59
861.20	37.45
861.49	28.09
861.79	9.68
862.09	18.72
862.38	4.52
862.68	-5.49
862.98	-3.55
863.27	-2.91
863.57	16.79
863.87	22.28
864.16	15.82
864.46	15.50
864.76	16.46
865.05	3.23
865.35	13.88
865.65	10.65
865.94	20.98
866.24	15.82
866.54	10.65
866.83	30.35
867.13	28.41
867.42	28.41
867.72	19.37
868.02	2.26
868.31	2.91
868.61	5.81
868.90	-11.94
869.20	1.94
869.49	-2.26
869.79	2.58
870.08	1.94
870.38	8.39
870.68	14.85
870.97	22.60
871.27	15.17
871.56	4.52
871.86	2.26
872.15	9.68
872.45	10.98
872.74	1.94
873.04	10.01
873.33	12.27
873.63	18.40
873.92	20.34
874.22	15.50
874.51	31.31
874.81	31.31
875.10	22.28
875.40	12.27
875.69	20.66
875.98	20.02
876.28	31.64
876.57	22.28
876.87	18.08
877.16	21.63
877.46	33.25
877.75	34.22
878.04	32.28
878.34	15.50
878.63	12.27
878.93	25.18
879.22	11.62
879.51	9.36
879.81	-0.32
880.10	-2.58
880.40	-17.43
880.69	-33.90
880.98	-51.01
881.28	-41.97
881.57	-46.81
881.86	-39.39
882.16	-39.39
882.45	-3.55
882.74	-7.43
883.04	3.23
883.33	2.58
883.62	-16.14
883.92	11.30
884.21	-4.52
884.50	-133.33
>>>>>End Processed Spectral Data<<<<<
