SpectraSuite Data File
++++++++++++++++++++++++++++++++++++
Date: Fri Feb 20 12:06:59 EST 2015
User: Administrator
Dark Spectrum Present: Yes
Reference Spectrum Present: No
Number of Sampled Component Spectra: 1
Spectrometers: SB2+H01071
Integration Time (usec): 5000000 (SB2+H01071)
Spectra Averaged: 1 (SB2+H01071)
Boxcar Smoothing: 3 (SB2+H01071)
Correct for Electrical Dark: No (SB2+H01071)
Strobe/Lamp Enabled: Yes (SB2+H01071)
Correct for Detector Non-linearity: No (SB2+H01071)
Correct for Stray Light: No (SB2+H01071)
Number of Pixels in Processed Spectrum: 2048
>>>>>Begin Processed Spectral Data<<<<<
191.06	-65.53
191.43	-65.53
191.81	-65.53
192.19	-32.61
192.56	-28.41
192.94	-26.15
193.31	-20.02
193.69	-29.38
194.07	-29.38
194.44	-20.98
194.82	-12.59
195.19	4.52
195.57	3.23
195.95	8.07
196.32	19.69
196.70	8.07
197.07	-14.85
197.45	-27.12
197.83	-35.83
198.20	-23.57
198.58	-35.19
198.95	-36.16
199.33	-19.37
199.70	-12.59
200.08	-3.55
200.46	-0.00
200.83	-6.13
201.21	4.52
201.58	8.07
201.96	-3.55
202.33	13.88
202.71	26.80
203.09	17.76
203.46	11.94
203.84	29.70
204.21	27.44
204.59	40.35
204.96	35.51
205.34	9.68
205.71	20.66
206.09	32.28
206.46	16.46
206.84	25.18
207.21	10.98
207.59	16.79
207.96	27.44
208.34	9.36
208.71	8.72
209.09	8.39
209.46	-11.94
209.84	7.43
210.21	-4.52
210.59	-0.32
210.96	4.84
211.34	-8.72
211.71	-19.69
212.09	6.13
212.46	-11.30
212.84	-5.81
213.21	-26.47
213.59	-6.46
213.96	10.98
214.34	12.27
214.71	-11.94
215.08	-5.17
215.46	1.29
215.83	18.72
216.21	0.32
216.58	-8.39
216.96	-7.10
217.33	9.68
217.70	3.23
218.08	-10.98
218.45	-6.78
218.83	-6.78
219.20	-14.20
219.58	-18.72
219.95	-30.99
220.32	-8.39
220.70	3.23
221.07	-2.91
221.45	-0.65
221.82	10.33
222.19	20.66
222.57	19.37
222.94	6.46
223.32	-8.39
223.69	-13.56
224.06	-20.98
224.44	-25.83
224.81	-28.41
225.18	-30.35
225.56	-27.44
225.93	-22.28
226.31	-2.91
226.68	1.29
227.05	-2.26
227.43	5.17
227.80	4.20
228.17	-6.46
228.55	12.91
228.92	-1.29
229.29	3.23
229.67	10.98
230.04	4.52
230.41	9.68
230.79	15.50
231.16	7.43
231.53	14.85
231.91	16.14
232.28	19.69
232.65	17.43
233.03	20.34
233.40	41.97
233.77	41.65
234.15	30.02
234.52	26.80
234.89	35.51
235.26	42.94
235.64	41.65
236.01	14.20
236.38	5.17
236.76	12.91
237.13	-1.61
237.50	-15.82
237.87	-34.22
238.25	-29.38
238.62	-26.47
238.99	-7.43
239.36	2.58
239.74	22.60
240.11	37.45
240.48	48.75
240.85	52.30
241.23	52.62
241.60	32.28
241.97	25.50
242.34	16.79
242.72	-4.52
243.09	-2.91
243.46	-10.65
243.83	-14.20
244.20	-10.98
244.58	-23.24
244.95	-16.79
245.32	-20.34
245.69	-33.25
246.07	-37.77
246.44	-44.55
246.81	-48.42
247.18	-56.82
247.55	-60.69
247.92	-53.59
248.30	-41.32
248.67	-39.06
249.04	-34.87
249.41	-24.54
249.78	-0.00
250.16	12.91
250.53	22.28
250.90	10.65
251.27	23.89
251.64	36.48
252.01	38.09
252.39	33.57
252.76	38.74
253.13	22.60
253.50	25.50
253.87	15.82
254.24	4.84
254.61	-11.30
254.98	-20.34
255.36	-35.83
255.73	-22.28
256.10	-23.57
256.47	-22.60
256.84	-20.34
257.21	-12.27
257.58	-4.52
257.95	-13.56
258.33	-10.65
258.70	-3.23
259.07	-3.55
259.44	2.26
259.81	13.88
260.18	12.91
260.55	21.63
260.92	10.01
261.29	12.91
261.66	16.14
262.03	17.11
262.40	-14.85
262.77	-20.34
263.15	-22.28
263.52	-17.11
263.89	-19.69
264.26	-28.09
264.63	-30.35
265.00	-20.66
265.37	-3.23
265.74	-0.32
266.11	-15.82
266.48	-1.94
266.85	15.50
267.22	7.10
267.59	20.02
267.96	19.37
268.33	15.82
268.70	38.09
269.07	22.92
269.44	12.91
269.81	17.11
270.18	28.73
270.55	9.68
270.92	3.23
271.29	5.17
271.66	10.01
272.03	13.56
272.40	28.73
272.77	2.58
273.14	13.88
273.51	24.21
273.88	3.87
274.25	-1.29
274.62	-17.43
274.99	-37.45
275.36	-17.11
275.73	-29.05
276.10	-26.47
276.47	-19.69
276.84	-12.27
277.21	-12.59
277.58	-22.28
277.94	-26.15
278.31	-18.40
278.68	-21.95
279.05	-34.54
279.42	-39.71
279.79	-30.02
280.16	-15.50
280.53	-28.09
280.90	-48.10
281.27	-49.07
281.64	-14.53
282.01	-3.55
282.37	-9.36
282.74	-1.94
283.11	7.75
283.48	14.20
283.85	10.33
284.22	-0.97
284.59	-1.61
284.96	-3.23
285.33	3.23
285.69	-1.61
286.06	11.30
286.43	10.65
286.80	11.30
287.17	6.13
287.54	8.72
287.91	2.26
288.27	16.46
288.64	7.75
289.01	18.72
289.38	8.39
289.75	4.20
290.12	6.13
290.48	-2.26
290.85	-20.02
291.22	-27.76
291.59	-41.00
291.96	-43.26
292.33	-33.57
292.69	-33.25
293.06	-20.66
293.43	-8.39
293.80	7.43
294.17	14.20
294.53	18.72
294.90	5.81
295.27	16.14
295.64	21.31
296.01	35.51
296.37	34.87
296.74	39.06
297.11	36.48
297.48	31.96
297.84	25.83
298.21	25.50
298.58	4.84
298.95	-6.78
299.31	-15.50
299.68	4.20
300.05	13.24
300.42	11.94
300.78	-17.11
301.15	-9.36
301.52	2.26
301.89	9.68
302.25	-12.91
302.62	-2.58
302.99	-2.91
303.35	-9.36
303.72	-16.79
304.09	-36.16
304.46	-39.06
304.82	-41.65
305.19	-40.35
305.56	-55.20
305.92	-30.99
306.29	-10.98
306.66	5.17
307.02	1.94
307.39	10.98
307.76	7.43
308.12	40.68
308.49	24.21
308.86	2.91
309.23	13.56
309.59	21.95
309.96	17.76
310.32	10.98
310.69	-7.10
311.06	1.29
311.42	8.72
311.79	3.23
312.16	-5.49
312.52	6.13
312.89	-0.32
313.26	-9.04
313.62	-10.01
313.99	-5.81
314.35	-15.82
314.72	-8.39
315.09	-18.40
315.45	-10.33
315.82	-7.43
316.19	-4.52
316.55	-27.76
316.92	-26.80
317.28	-41.97
317.65	-36.48
318.02	-43.91
318.38	-43.26
318.75	-37.45
319.11	-26.15
319.48	-18.08
319.84	1.61
320.21	-5.81
320.58	7.75
320.94	32.93
321.31	32.93
321.67	33.25
322.04	34.22
322.40	34.54
322.77	41.65
323.13	33.57
323.50	12.91
323.86	10.33
324.23	12.91
324.60	16.14
324.96	22.28
325.33	1.94
325.69	5.49
326.06	-0.97
326.42	-17.43
326.79	-33.57
327.15	-52.30
327.52	-81.35
327.88	-53.91
328.25	-44.87
328.61	-48.10
328.98	-26.15
329.34	-15.50
329.71	-9.04
330.07	-4.84
330.44	-11.30
330.80	-29.70
331.16	-32.61
331.53	-31.31
331.89	-19.05
332.26	1.61
332.62	4.20
332.99	-2.58
333.35	5.17
333.72	18.40
334.08	2.91
334.45	-4.52
334.81	0.32
335.17	5.17
335.54	9.04
335.90	9.36
336.27	7.75
336.63	21.31
337.00	25.83
337.36	-5.17
337.72	-2.26
338.09	3.23
338.45	6.13
338.82	19.69
339.18	10.01
339.54	15.17
339.91	18.72
340.27	19.05
340.63	8.39
341.00	6.78
341.36	10.01
341.73	9.68
342.09	9.04
342.45	22.60
342.82	30.67
343.18	46.17
343.54	67.15
343.91	46.17
344.27	41.32
344.63	30.99
345.00	27.76
345.36	21.63
345.72	15.82
346.09	-13.56
346.45	9.68
346.81	22.92
347.18	35.83
347.54	29.38
347.90	19.69
348.27	11.94
348.63	15.82
348.99	-9.36
349.36	-0.65
349.72	-3.55
350.08	0.00
350.45	-4.84
350.81	-2.58
351.17	-0.65
351.53	-1.94
351.90	-3.55
352.26	0.32
352.62	3.23
352.98	14.20
353.35	19.37
353.71	28.73
354.07	42.61
354.44	31.96
354.80	33.25
355.16	15.82
355.52	19.05
355.88	22.92
356.25	10.98
356.61	1.29
356.97	-3.87
357.33	-12.59
357.70	10.33
358.06	-2.26
358.42	-14.20
358.78	-30.02
359.15	-31.64
359.51	-27.76
359.87	-47.46
360.23	-47.46
360.59	-29.38
360.95	-26.47
361.32	3.23
361.68	11.94
362.04	-0.65
362.40	8.07
362.76	2.91
363.13	-3.23
363.49	1.94
363.85	-0.32
364.21	-2.58
364.57	24.86
364.93	38.42
365.30	43.26
365.66	47.13
366.02	39.39
366.38	22.92
366.74	44.23
367.10	31.64
367.46	33.57
367.83	22.60
368.19	26.47
368.55	29.70
368.91	30.02
369.27	-2.91
369.63	-4.84
369.99	-19.05
370.35	-11.94
370.71	-17.11
371.08	-17.43
371.44	-3.87
371.80	26.80
372.16	49.72
372.52	49.72
372.88	49.07
373.24	49.07
373.60	55.20
373.96	50.36
374.32	38.09
374.68	18.72
375.04	14.53
375.40	9.36
375.76	4.20
376.13	-0.32
376.49	3.23
376.85	-14.53
377.21	-5.49
377.57	-0.32
377.93	-1.94
378.29	9.36
378.65	12.91
379.01	9.68
379.37	19.69
379.73	3.55
380.09	16.14
380.45	12.59
380.81	-3.87
381.17	-20.02
381.53	-19.69
381.89	-20.02
382.25	-13.88
382.61	-17.11
382.97	-16.79
383.33	-15.17
383.69	5.17
384.05	15.50
384.41	22.28
384.77	24.86
385.13	40.68
385.49	51.01
385.85	48.75
386.20	59.72
386.56	31.64
386.92	22.28
387.28	29.38
387.64	11.62
388.00	-0.97
388.36	4.20
388.72	-3.87
389.08	-3.55
389.44	-15.82
389.80	-23.89
390.16	-29.70
390.52	-38.09
390.88	-30.67
391.23	-40.35
391.59	-17.43
391.95	3.87
392.31	3.87
392.67	-8.72
393.03	26.47
393.39	4.20
393.75	10.98
394.11	15.82
394.46	13.24
394.82	22.28
395.18	38.42
395.54	31.31
395.90	53.59
396.26	41.97
396.62	28.73
396.97	25.50
397.33	9.68
397.69	4.52
398.05	-21.95
398.41	-25.83
398.77	-32.93
399.12	-23.24
399.48	-32.28
399.84	-24.54
400.20	-19.05
400.56	4.52
400.91	6.13
401.27	2.26
401.63	-3.23
401.99	10.98
402.35	13.24
402.70	3.55
403.06	-8.39
403.42	-3.23
403.78	19.69
404.14	13.24
404.49	4.52
404.85	-10.65
405.21	-7.10
405.57	-1.94
405.92	-5.17
406.28	-11.30
406.64	-11.62
407.00	-6.78
407.35	-1.94
407.71	-3.23
408.07	-1.94
408.43	-10.65
408.78	5.17
409.14	23.89
409.50	27.12
409.85	31.31
410.21	53.27
410.57	47.78
410.93	47.46
411.28	41.00
411.64	36.80
412.00	40.35
412.35	51.33
412.71	37.45
413.07	45.52
413.42	49.07
413.78	49.07
414.14	32.28
414.49	14.53
414.85	9.36
415.21	-10.01
415.56	-9.36
415.92	-4.84
416.28	-6.78
416.63	9.04
416.99	19.05
417.35	3.55
417.70	17.43
418.06	-1.29
418.42	-5.49
418.77	-10.98
419.13	-22.60
419.48	-16.46
419.84	-4.84
420.20	-3.87
420.55	-0.65
420.91	2.26
421.27	10.33
421.62	20.34
421.98	17.76
422.33	15.17
422.69	8.72
423.05	7.43
423.40	1.29
423.76	-5.81
424.11	-18.08
424.47	-13.56
424.82	1.94
425.18	-0.65
425.54	17.11
425.89	4.20
426.25	-1.29
426.60	1.29
426.96	-12.27
427.31	-25.83
427.67	-20.66
428.02	-15.50
428.38	2.91
428.73	5.17
429.09	-6.46
429.44	6.13
429.80	8.07
430.15	20.66
430.51	12.91
430.86	18.72
431.22	9.04
431.57	16.14
431.93	9.68
432.28	11.30
432.64	-6.13
432.99	-14.85
433.35	-3.55
433.70	-3.87
434.06	10.01
434.41	17.76
434.77	18.72
435.12	37.13
435.48	38.42
435.83	25.83
436.19	47.78
436.54	42.94
436.89	36.80
437.25	36.80
437.60	12.27
437.96	18.08
438.31	24.54
438.67	-2.91
439.02	-9.04
439.37	-14.20
439.73	-25.50
440.08	5.17
440.44	-3.55
440.79	-18.72
441.15	-17.43
441.50	-18.72
441.85	-19.37
442.21	-9.36
442.56	-15.82
442.91	-10.33
443.27	-2.91
443.62	6.78
443.98	9.68
444.33	10.65
444.68	9.04
445.04	6.46
445.39	10.98
445.74	9.04
446.10	10.01
446.45	1.61
446.80	21.95
447.16	16.14
447.51	5.81
447.86	-4.20
448.22	1.61
448.57	-5.49
448.92	-7.75
449.28	-28.41
449.63	-40.03
449.98	-32.93
450.34	-15.82
450.69	-19.05
451.04	-18.40
451.40	-11.62
451.75	-11.62
452.10	9.68
452.45	13.88
452.81	13.56
453.16	-1.29
453.51	6.78
453.86	15.82
454.22	12.91
454.57	8.39
454.92	-2.91
455.27	-18.72
455.63	-16.46
455.98	-22.60
456.33	-41.00
456.68	-36.80
457.04	-23.57
457.39	-20.34
457.74	-18.08
458.09	-20.66
458.45	-21.63
458.80	-22.92
459.15	-12.27
459.50	-36.48
459.85	-41.97
460.21	-20.34
460.56	-16.46
460.91	5.49
461.26	13.88
461.61	-1.29
461.97	0.65
462.32	7.10
462.67	-19.37
463.02	-16.14
463.37	-26.80
463.72	-17.11
464.08	-20.66
464.43	-21.95
464.78	-16.46
465.13	-8.07
465.48	-4.84
465.83	-8.72
466.18	-22.60
466.54	-10.98
466.89	-6.13
467.24	-1.61
467.59	4.20
467.94	-6.13
468.29	-4.52
468.64	7.10
468.99	7.10
469.34	1.94
469.70	-12.91
470.05	-17.76
470.40	-22.28
470.75	-29.05
471.10	-44.87
471.45	-47.46
471.80	-47.13
472.15	-40.35
472.50	-41.65
472.85	-32.61
473.20	-33.90
473.55	-14.53
473.90	-18.40
474.25	-28.73
474.61	-21.95
474.96	-24.54
475.31	-27.76
475.66	-10.65
476.01	-9.36
476.36	-13.24
476.71	15.82
477.06	18.40
477.41	31.31
477.76	46.17
478.11	44.87
478.46	46.81
478.81	54.24
479.16	38.42
479.51	32.93
479.86	28.41
480.21	30.02
480.56	28.09
480.91	24.86
481.26	27.12
481.61	28.09
481.96	18.40
482.31	9.04
482.66	-16.79
483.00	-20.98
483.35	-37.77
483.70	-43.58
484.05	-37.45
484.40	-34.54
484.75	-43.26
485.10	-14.85
485.45	-23.24
485.80	-10.65
486.15	3.87
486.50	-11.62
486.85	-13.88
487.20	-4.20
487.55	0.32
487.89	1.29
488.24	0.32
488.59	6.78
488.94	25.50
489.29	33.25
489.64	29.05
489.99	8.39
490.34	17.76
490.68	15.17
491.03	-7.10
491.38	-9.04
491.73	-1.29
492.08	6.78
492.43	19.69
492.78	12.27
493.12	23.24
493.47	24.86
493.82	14.85
494.17	-0.32
494.52	-8.72
494.87	-28.73
495.21	-25.83
495.56	-28.09
495.91	-21.95
496.26	-17.11
496.61	1.29
496.95	7.75
497.30	17.11
497.65	24.21
498.00	23.24
498.35	37.77
498.69	35.83
499.04	15.82
499.39	6.13
499.74	9.04
500.08	-14.85
500.43	-17.43
500.78	-49.39
501.13	-49.07
501.48	-47.46
501.82	-38.74
502.17	-45.52
502.52	-20.34
502.86	-44.87
503.21	-22.60
503.56	-21.95
503.91	-25.50
504.25	-21.31
504.60	-12.59
504.95	-32.28
505.30	6.46
505.64	-1.94
505.99	6.13
506.34	18.08
506.68	12.27
507.03	4.52
507.38	12.27
507.72	9.04
508.07	-0.65
508.42	-11.30
508.76	-20.34
509.11	-20.98
509.46	-4.52
509.80	-11.30
510.15	-23.57
510.50	-17.43
510.84	-5.81
511.19	-9.04
511.54	0.65
511.88	-8.39
512.23	10.65
512.57	25.50
512.92	22.60
513.27	10.98
513.61	21.31
513.96	13.24
514.31	11.62
514.65	6.78
515.00	-15.82
515.34	-6.46
515.69	-1.29
516.03	2.91
516.38	1.29
516.73	-6.78
517.07	-6.78
517.42	-4.84
517.76	-15.82
518.11	-30.02
518.45	-30.67
518.80	-23.57
519.15	-13.56
519.49	-5.81
519.84	-2.91
520.18	-4.20
520.53	-7.75
520.87	-22.60
521.22	-35.19
521.56	-34.22
521.91	-50.36
522.25	-45.84
522.60	-21.31
522.94	7.75
523.29	27.44
523.63	35.19
523.98	14.85
524.32	29.70
524.67	15.82
525.01	-4.84
525.36	-14.20
525.70	-32.93
526.05	-29.38
526.39	-27.12
526.74	-28.41
527.08	-24.86
527.43	-29.38
527.77	-37.13
528.12	-31.64
528.46	-25.83
528.80	-28.09
529.15	-32.61
529.49	-18.40
529.84	-2.91
530.18	1.61
530.53	-7.43
530.87	-4.84
531.21	22.28
531.56	19.69
531.90	12.27
532.25	4.84
532.59	15.50
532.93	35.19
533.28	37.77
533.62	43.58
533.97	38.74
534.31	34.22
534.65	39.71
535.00	37.13
535.34	26.47
535.68	31.96
536.03	-1.94
536.37	1.94
536.71	6.13
537.06	2.26
537.40	-8.39
537.74	-0.00
538.09	-20.34
538.43	-3.23
538.77	-11.30
539.12	4.20
539.46	13.56
539.80	20.34
540.15	12.59
540.49	26.47
540.83	41.32
541.18	92.01
541.52	94.27
541.86	102.34
542.20	93.62
542.55	89.42
542.89	95.24
543.23	82.00
543.58	40.35
543.92	19.05
544.26	-4.84
544.60	3.87
544.95	19.69
545.29	-3.87
545.63	-10.33
545.97	-17.43
546.32	-5.49
546.66	7.43
547.00	20.02
547.34	12.91
547.68	25.50
548.03	33.90
548.37	30.35
548.71	21.95
549.05	1.29
549.39	-13.88
549.74	-23.89
550.08	-30.67
550.42	-35.83
550.76	-30.67
551.10	-52.62
551.45	-32.28
551.79	-35.19
552.13	-36.16
552.47	-36.48
552.81	-30.67
553.15	-13.56
553.50	5.49
553.84	2.26
554.18	11.30
554.52	29.70
554.86	37.13
555.20	40.35
555.54	26.15
555.88	25.83
556.23	20.02
556.57	17.76
556.91	-0.97
557.25	-7.10
557.59	-13.88
557.93	-9.04
558.27	2.26
558.61	4.20
558.95	-3.87
559.29	13.88
559.64	16.46
559.98	-9.04
560.32	-7.43
560.66	-35.51
561.00	-16.79
561.34	-25.18
561.68	-29.38
562.02	-42.61
562.36	-10.98
562.70	-23.57
563.04	1.61
563.38	-27.76
563.72	-21.63
564.06	-34.22
564.40	-15.82
564.74	-16.79
565.08	-25.83
565.42	-29.38
565.76	-19.69
566.10	-4.84
566.44	-7.10
566.78	-26.80
567.12	-26.15
567.46	-10.98
567.80	-7.43
568.14	0.97
568.48	-0.32
568.82	13.24
569.16	8.72
569.50	11.94
569.84	9.36
570.18	12.59
570.52	18.08
570.86	20.34
571.20	12.27
571.54	27.12
571.88	19.69
572.22	35.19
572.55	20.98
572.89	25.50
573.23	33.90
573.57	19.69
573.91	21.95
574.25	26.47
574.59	17.76
574.93	33.57
575.27	19.05
575.61	-7.75
575.94	14.53
576.28	10.65
576.62	-1.61
576.96	-9.36
577.30	-9.36
577.64	-1.29
577.98	1.29
578.32	10.98
578.65	22.60
578.99	37.13
579.33	44.55
579.67	47.46
580.01	39.39
580.35	43.26
580.68	33.57
581.02	27.44
581.36	17.43
581.70	10.65
582.04	13.56
582.37	26.47
582.71	23.57
583.05	20.02
583.39	21.95
583.73	16.14
584.06	20.98
584.40	11.62
584.74	7.75
585.08	-2.26
585.41	4.84
585.75	-2.26
586.09	5.17
586.43	-1.29
586.76	-23.57
587.10	-33.25
587.44	-13.24
587.78	-33.57
588.11	-40.03
588.45	-58.76
588.79	-66.18
589.13	-46.49
589.46	-44.23
589.80	-51.65
590.14	-33.57
590.47	-26.15
590.81	-6.13
591.15	-2.91
591.48	-11.62
591.82	-7.43
592.16	-5.17
592.50	-10.33
592.83	-23.89
593.17	-23.24
593.51	-13.24
593.84	-10.65
594.18	-20.02
594.51	0.32
594.85	28.09
595.19	43.58
595.52	47.13
595.86	44.23
596.20	64.24
596.53	72.64
596.87	58.11
597.21	22.92
597.54	24.21
597.88	15.82
598.21	21.31
598.55	12.91
598.89	10.33
599.22	-0.65
599.56	1.61
599.89	2.26
600.23	-0.97
600.57	-0.65
600.90	1.94
601.24	10.33
601.57	23.57
601.91	22.92
602.24	15.50
602.58	13.24
602.91	-9.04
603.25	-21.31
603.58	-30.35
603.92	-39.39
604.26	-26.80
604.59	-32.28
604.93	-15.17
605.26	3.87
605.60	28.41
605.93	26.47
606.27	22.28
606.60	18.08
606.94	39.39
607.27	16.79
607.61	15.50
607.94	-16.14
608.28	-16.46
608.61	-8.07
608.95	-10.65
609.28	-6.46
609.61	5.49
609.95	6.78
610.28	25.50
610.62	26.80
610.95	24.21
611.29	26.47
611.62	-0.32
611.96	4.52
612.29	10.01
612.62	8.39
612.96	15.17
613.29	24.21
613.63	14.53
613.96	20.98
614.29	10.98
614.63	-8.72
614.96	-16.46
615.30	-24.54
615.63	-26.47
615.96	-29.05
616.30	-18.08
616.63	-13.56
616.97	13.56
617.30	22.28
617.63	18.08
617.97	13.56
618.30	19.37
618.63	3.55
618.97	-4.84
619.30	-15.82
619.63	-24.86
619.97	-13.88
620.30	0.32
620.63	5.81
620.97	12.59
621.30	26.15
621.63	10.01
621.97	14.53
622.30	20.02
622.63	0.00
622.96	-2.58
623.30	0.65
623.63	12.59
623.96	40.68
624.30	41.65
624.63	33.25
624.96	30.02
625.29	24.21
625.63	18.40
625.96	14.85
626.29	-0.65
626.62	-0.65
626.96	-3.55
627.29	-1.94
627.62	9.04
627.95	13.56
628.28	15.82
628.62	27.12
628.95	7.43
629.28	-6.46
629.61	11.94
629.95	14.85
630.28	18.40
630.61	6.13
630.94	-9.68
631.27	-4.84
631.60	0.32
631.94	-18.72
632.27	-18.40
632.60	-10.65
632.93	-22.28
633.26	-28.09
633.59	-19.37
633.93	-5.17
634.26	1.29
634.59	-4.52
634.92	-13.88
635.25	-1.29
635.58	-3.55
635.91	-7.10
636.24	-14.85
636.58	8.07
636.91	-4.20
637.24	-10.33
637.57	-9.36
637.90	-3.23
638.23	-5.49
638.56	-3.23
638.89	-30.99
639.22	-29.38
639.55	-31.64
639.88	-35.19
640.22	-40.03
640.55	-37.45
640.88	-39.39
641.21	-53.59
641.54	-47.46
641.87	-41.65
642.20	-44.55
642.53	-28.73
642.86	-22.60
643.19	-17.11
643.52	3.23
643.85	0.32
644.18	5.17
644.51	-2.26
644.84	-5.17
645.17	-5.17
645.50	-18.08
645.83	-27.12
646.16	-16.46
646.49	-25.18
646.82	-4.84
647.15	13.24
647.48	10.01
647.81	16.14
648.14	14.53
648.47	6.13
648.80	13.24
649.13	-0.97
649.46	-19.37
649.79	-11.94
650.11	3.55
650.44	14.53
650.77	10.33
651.10	7.10
651.43	21.31
651.76	1.61
652.09	-0.32
652.42	-20.02
652.75	-24.54
653.08	-13.24
653.41	-17.76
653.73	-19.05
654.06	-0.65
654.39	-4.84
654.72	9.04
655.05	7.10
655.38	1.61
655.71	0.65
656.04	-3.87
656.36	2.58
656.69	-3.87
657.02	-16.46
657.35	-19.05
657.68	-4.84
658.01	-1.29
658.33	0.65
658.66	4.84
658.99	14.20
659.32	10.33
659.65	13.88
659.97	-7.43
660.30	-8.07
660.63	-17.43
660.96	-27.12
661.29	-16.14
661.61	2.91
661.94	0.97
662.27	17.43
662.60	30.02
662.92	30.99
663.25	26.47
663.58	19.69
663.91	11.62
664.23	-3.55
664.56	0.65
664.89	-12.59
665.22	-16.79
665.54	-6.13
665.87	-13.24
666.20	-23.57
666.53	-8.72
666.85	-8.72
667.18	3.55
667.51	2.91
667.83	-26.47
668.16	-20.98
668.49	-6.78
668.81	-4.52
669.14	-9.04
669.47	-6.46
669.79	8.72
670.12	28.09
670.45	17.11
670.77	10.98
671.10	10.01
671.43	-5.17
671.75	-15.50
672.08	-25.50
672.41	-33.90
672.73	-36.80
673.06	-35.83
673.39	-40.35
673.71	-38.42
674.04	-41.65
674.36	-40.03
674.69	-24.86
675.02	-16.46
675.34	-12.91
675.67	-7.10
675.99	2.91
676.32	8.72
676.64	4.52
676.97	5.17
677.30	16.14
677.62	5.49
677.95	9.68
678.27	-6.46
678.60	-17.11
678.92	-10.65
679.25	-26.15
679.57	-41.32
679.90	-45.84
680.22	-41.00
680.55	-31.64
680.88	-30.67
681.20	-38.09
681.53	-30.67
681.85	-21.31
682.18	-1.29
682.50	3.23
682.83	9.68
683.15	27.12
683.47	32.93
683.80	32.93
684.12	25.83
684.45	16.46
684.77	6.13
685.10	-3.55
685.42	-20.66
685.75	-19.37
686.07	-20.66
686.40	-22.92
686.72	-35.51
687.04	-40.35
687.37	-36.16
687.69	-20.66
688.02	-21.31
688.34	-17.76
688.67	-14.20
688.99	-9.68
689.31	-0.65
689.64	11.30
689.96	8.72
690.28	21.31
690.61	50.36
690.93	74.57
691.26	92.33
691.58	78.45
691.90	64.57
692.23	49.72
692.55	33.57
692.87	10.98
693.20	-22.92
693.52	-44.23
693.84	-43.26
694.17	-26.47
694.49	-30.35
694.81	-27.12
695.14	-45.20
695.46	-37.77
695.78	-23.57
696.11	-17.76
696.43	-34.22
696.75	-18.08
697.08	-30.35
697.40	-20.98
697.72	-16.79
698.04	-14.85
698.37	-7.10
698.69	-9.36
699.01	-10.65
699.33	11.94
699.66	9.04
699.98	5.17
700.30	13.56
700.62	1.61
700.95	-3.87
701.27	-0.97
701.59	-2.91
701.91	2.91
702.24	-1.29
702.56	-9.68
702.88	-0.00
703.20	11.30
703.52	0.32
703.85	-20.98
704.17	-3.23
704.49	6.46
704.81	0.97
705.13	5.81
705.45	16.14
705.78	20.34
706.10	43.58
706.42	14.85
706.74	18.72
707.06	14.20
707.38	3.23
707.71	-8.39
708.03	-9.36
708.35	-17.76
708.67	-9.04
708.99	-27.12
709.31	-19.05
709.63	-10.65
709.95	-14.85
710.27	-20.34
710.60	-11.62
710.92	-16.14
711.24	-1.94
711.56	-9.68
711.88	-9.04
712.20	-13.56
712.52	-8.72
712.84	-13.88
713.16	-4.20
713.48	-12.59
713.80	-7.75
714.12	-21.31
714.44	-15.50
714.76	10.01
715.08	0.97
715.40	-4.84
715.72	-5.49
716.04	-8.39
716.36	-3.87
716.68	9.04
717.00	-10.01
717.32	0.65
717.64	16.79
717.96	28.41
718.28	40.03
718.60	41.97
718.92	41.32
719.24	30.67
719.56	28.41
719.88	3.55
720.20	-4.52
720.52	-10.01
720.84	-26.47
721.16	-19.05
721.48	0.32
721.80	-1.29
722.12	14.85
722.44	24.21
722.76	21.31
723.08	33.90
723.40	15.50
723.72	-7.75
724.03	-11.62
724.35	-2.91
724.67	-6.13
724.99	-4.20
725.31	0.32
725.63	20.02
725.95	25.50
726.27	20.98
726.58	2.58
726.90	2.26
727.22	2.58
727.54	-7.43
727.86	-35.51
728.18	-25.18
728.50	-28.41
728.81	-23.89
729.13	-31.96
729.45	-42.61
729.77	-28.41
730.09	1.94
730.40	-15.17
730.72	2.26
731.04	-13.56
731.36	1.29
731.68	19.69
731.99	18.72
732.31	0.65
732.63	12.59
732.95	4.52
733.27	24.86
733.58	18.72
733.90	10.33
734.22	6.78
734.54	13.88
734.85	11.30
735.17	11.94
735.49	5.49
735.80	0.32
736.12	-5.81
736.44	-15.50
736.76	-27.76
737.07	-11.94
737.39	-28.09
737.71	-14.85
738.02	-9.68
738.34	-7.10
738.66	0.32
738.97	3.23
739.29	-4.84
739.61	21.95
739.93	8.07
740.24	-8.07
740.56	-9.04
740.87	-3.87
741.19	-0.32
741.51	1.61
741.82	-5.17
742.14	22.92
742.46	33.57
742.77	20.02
743.09	26.47
743.41	9.68
743.72	-2.58
744.04	-8.07
744.35	-28.09
744.67	-26.80
744.99	-14.53
745.30	-34.54
745.62	-2.91
745.93	18.08
746.25	0.97
746.56	-1.94
746.88	9.68
747.20	19.05
747.51	31.64
747.83	21.31
748.14	6.46
748.46	18.72
748.77	24.21
749.09	14.53
749.40	13.56
749.72	11.94
750.03	17.11
750.35	13.88
750.66	19.69
750.98	22.92
751.29	30.99
751.61	25.18
751.92	26.47
752.24	15.17
752.55	15.50
752.87	16.46
753.18	-6.13
753.50	-20.66
753.81	-15.17
754.13	-29.70
754.44	-30.35
754.76	-19.37
755.07	-20.02
755.38	-15.82
755.70	-32.28
756.01	-43.91
756.33	-47.78
756.64	-51.01
756.95	-66.50
757.27	-69.09
757.58	-55.85
757.90	-34.87
758.21	-26.15
758.52	-5.81
758.84	-18.08
759.15	0.00
759.47	12.27
759.78	5.17
760.09	14.53
760.41	35.83
760.72	49.07
761.03	71.67
761.35	41.97
761.66	20.34
761.97	23.24
762.29	11.94
762.60	-8.07
762.91	-35.51
763.23	-33.57
763.54	-14.20
763.85	5.17
764.17	11.30
764.48	25.50
764.79	20.34
765.10	35.19
765.42	38.74
765.73	35.83
766.04	33.90
766.36	26.15
766.67	4.20
766.98	12.91
767.29	6.46
767.61	0.65
767.92	9.68
768.23	0.65
768.54	-0.00
768.86	16.46
769.17	22.60
769.48	23.24
769.79	15.17
770.10	5.49
770.42	-5.81
770.73	3.55
771.04	-8.07
771.35	-15.17
771.66	-9.68
771.98	-5.81
772.29	-12.91
772.60	-11.62
772.91	-12.27
773.22	-1.29
773.53	0.00
773.85	-10.01
774.16	-9.36
774.47	2.26
774.78	-3.87
775.09	0.00
775.40	-23.89
775.71	-21.31
776.02	-15.82
776.34	-22.28
776.65	-19.37
776.96	4.52
777.27	-13.88
777.58	7.43
777.89	7.10
778.20	0.97
778.51	4.52
778.82	1.61
779.13	5.49
779.44	25.50
779.75	32.28
780.06	33.57
780.38	54.56
780.69	56.82
781.00	42.61
781.31	35.51
781.62	31.31
781.93	9.68
782.24	-8.39
782.55	-24.86
782.86	-29.38
783.17	-15.50
783.48	-23.89
783.79	-27.44
784.10	-8.72
784.41	-1.94
784.72	-16.14
785.03	-23.89
785.34	-19.37
785.65	-6.78
785.96	-14.20
786.27	-22.28
786.57	-20.34
786.88	-12.59
787.19	-11.62
787.50	-26.47
787.81	-43.58
788.12	-43.26
788.43	-34.87
788.74	-34.87
789.05	-36.48
789.36	-25.18
789.67	-9.36
789.98	14.85
790.29	11.30
790.59	2.26
790.90	-2.26
791.21	14.20
791.52	28.09
791.83	20.98
792.14	9.04
792.45	19.69
792.75	27.76
793.06	21.95
793.37	17.11
793.68	-2.58
793.99	-7.75
794.30	-10.98
794.60	-8.07
794.91	-20.34
795.22	4.20
795.53	-1.29
795.84	-1.61
796.15	11.62
796.45	7.43
796.76	10.65
797.07	14.20
797.38	-7.75
797.68	-0.32
797.99	13.24
798.30	24.54
798.61	30.67
798.91	17.43
799.22	33.25
799.53	52.30
799.84	46.17
800.14	38.09
800.45	15.82
800.76	23.89
801.07	32.61
801.37	6.46
801.68	-3.87
801.99	-6.13
802.29	0.32
802.60	-4.20
802.91	-4.52
803.22	-25.50
803.52	-25.83
803.83	-29.70
804.14	-42.61
804.44	-49.07
804.75	-44.87
805.06	-55.20
805.36	-47.78
805.67	-35.19
805.97	-27.12
806.28	-19.05
806.59	-4.52
806.89	-10.33
807.20	-10.65
807.51	10.01
807.81	13.24
808.12	6.46
808.42	11.30
808.73	-10.33
809.04	1.29
809.34	5.17
809.65	4.20
809.95	-11.62
810.26	-10.01
810.56	-16.79
810.87	-13.88
811.18	-10.01
811.48	-2.26
811.79	-12.91
812.09	6.13
812.40	8.72
812.70	18.40
813.01	15.82
813.31	-1.94
813.62	0.97
813.92	3.23
814.23	-8.72
814.53	-8.72
814.84	7.75
815.14	3.87
815.45	5.49
815.75	-3.23
816.06	3.23
816.36	10.65
816.67	10.65
816.97	-4.52
817.28	1.61
817.58	5.17
817.89	1.94
818.19	-10.65
818.49	-16.46
818.80	-7.75
819.10	-8.72
819.41	2.26
819.71	7.43
820.01	12.27
820.32	9.68
820.62	4.84
820.93	-4.84
821.23	7.10
821.53	3.87
821.84	4.52
822.14	-7.75
822.45	-7.43
822.75	7.43
823.05	3.23
823.36	14.85
823.66	13.88
823.96	11.94
824.27	16.79
824.57	40.03
824.87	38.09
825.18	51.01
825.48	20.66
825.78	31.31
826.09	36.16
826.39	51.65
826.69	34.22
827.00	26.15
827.30	37.45
827.60	51.33
827.90	48.42
828.21	71.99
828.51	70.38
828.81	61.66
829.11	72.64
829.42	52.62
829.72	48.75
830.02	30.35
830.32	13.24
830.63	9.36
830.93	13.56
831.23	4.84
831.53	0.00
831.84	-6.13
832.14	17.76
832.44	8.39
832.74	3.55
833.04	6.46
833.35	7.75
833.65	20.66
833.95	29.70
834.25	10.65
834.55	10.65
834.85	16.79
835.16	26.15
835.46	38.42
835.76	28.73
836.06	22.60
836.36	34.22
836.66	22.60
836.96	15.17
837.26	-5.49
837.57	-14.85
837.87	-18.40
838.17	-10.33
838.47	-25.50
838.77	-11.94
839.07	-22.28
839.37	-5.81
839.67	6.78
839.97	9.04
840.27	-10.98
840.57	-12.59
840.88	-11.62
841.18	9.68
841.48	-4.52
841.78	-27.76
842.08	-34.54
842.38	-22.28
842.68	-7.10
842.98	-6.78
843.28	-23.57
843.58	-16.79
843.88	-1.94
844.18	-4.20
844.48	7.75
844.78	-2.26
845.08	13.56
845.38	17.43
845.68	16.46
845.98	12.59
846.28	17.76
846.58	6.13
846.88	0.97
847.18	-17.76
847.48	-12.59
847.78	-10.33
848.07	-19.05
848.37	-16.14
848.67	-12.91
848.97	1.29
849.27	12.27
849.57	3.23
849.87	0.97
850.17	4.20
850.47	0.65
850.77	0.00
851.07	-12.91
851.36	-25.50
851.66	-14.20
851.96	-11.62
852.26	-13.88
852.56	-4.84
852.86	-3.55
853.16	-4.20
853.45	-10.01
853.75	-14.20
854.05	-23.57
854.35	-27.76
854.65	-42.94
854.95	-52.30
855.24	-43.58
855.54	-31.64
855.84	-19.37
856.14	-19.05
856.44	4.52
856.73	20.66
857.03	41.97
857.33	52.30
857.63	46.17
857.93	36.80
858.22	40.03
858.52	32.93
858.82	23.89
859.12	17.43
859.41	15.82
859.71	25.18
860.01	21.95
860.30	27.12
860.60	23.89
860.90	30.02
861.20	16.14
861.49	-1.29
861.79	-4.84
862.09	7.43
862.38	3.55
862.68	-7.43
862.98	11.94
863.27	18.40
863.57	28.41
863.87	19.69
864.16	-4.52
864.46	-1.61
864.76	4.52
865.05	-18.72
865.35	-31.64
865.65	-29.70
865.94	-9.04
866.24	-11.94
866.54	-8.72
866.83	2.58
867.13	13.24
867.42	33.57
867.72	28.41
868.02	12.27
868.31	19.37
868.61	22.28
868.90	12.91
869.20	26.15
869.49	22.60
869.79	23.57
870.08	26.47
870.38	47.78
870.68	47.13
870.97	53.27
871.27	32.61
871.56	16.14
871.86	22.92
872.15	21.95
872.45	5.81
872.74	13.88
873.04	15.50
873.33	20.34
873.63	25.83
873.92	8.39
874.22	4.20
874.51	17.76
874.81	20.34
875.10	13.24
875.40	-2.91
875.69	7.75
875.98	22.92
876.28	26.15
876.57	9.04
876.87	-7.10
877.16	-7.10
877.46	10.65
877.75	10.01
878.04	-6.46
878.34	-13.24
878.63	-4.52
878.93	11.94
879.22	1.29
879.51	-5.49
879.81	-13.88
880.10	15.82
880.40	7.75
880.69	6.13
880.98	-4.20
881.28	13.24
881.57	1.94
881.86	9.36
882.16	-7.75
882.45	-2.91
882.74	-12.59
883.04	-4.84
883.33	-7.10
883.62	-1.29
883.92	76.83
884.21	38.42
884.50	-42.94
>>>>>End Processed Spectral Data<<<<<
