SpectraSuite Data File
++++++++++++++++++++++++++++++++++++
Date: Fri Feb 20 12:09:44 EST 2015
User: Administrator
Dark Spectrum Present: Yes
Reference Spectrum Present: No
Number of Sampled Component Spectra: 1
Spectrometers: SB2+H01071
Integration Time (usec): 5000000 (SB2+H01071)
Spectra Averaged: 1 (SB2+H01071)
Boxcar Smoothing: 3 (SB2+H01071)
Correct for Electrical Dark: No (SB2+H01071)
Strobe/Lamp Enabled: Yes (SB2+H01071)
Correct for Detector Non-linearity: No (SB2+H01071)
Correct for Stray Light: No (SB2+H01071)
Number of Pixels in Processed Spectrum: 2048
>>>>>Begin Processed Spectral Data<<<<<
191.06	-70.05
191.43	-70.05
191.81	-70.05
192.19	-50.68
192.56	-30.35
192.94	-22.28
193.31	-34.54
193.69	-22.60
194.07	-24.54
194.44	-27.44
194.82	-7.43
195.19	-20.66
195.57	-23.57
195.95	3.87
196.32	-2.91
196.70	-0.32
197.07	3.87
197.45	-12.59
197.83	0.97
198.20	6.13
198.58	3.23
198.95	11.62
199.33	18.72
199.70	15.82
200.08	8.07
200.46	4.84
200.83	8.39
201.21	21.63
201.58	20.34
201.96	29.70
202.33	53.59
202.71	74.57
203.09	63.60
203.46	46.49
203.84	34.22
204.21	37.45
204.59	21.63
204.96	12.59
205.34	-2.91
205.71	5.17
206.09	32.61
206.46	28.73
206.84	30.67
207.21	30.99
207.59	23.89
207.96	25.50
208.34	8.72
208.71	-12.91
209.09	-22.92
209.46	-30.67
209.84	-18.08
210.21	-29.05
210.59	-25.83
210.96	-23.24
211.34	-20.98
211.71	-1.29
212.09	-4.84
212.46	-15.17
212.84	-13.56
213.21	-33.90
213.59	-13.24
213.96	-5.81
214.34	-23.89
214.71	-30.02
215.08	-24.86
215.46	-10.98
215.83	7.75
216.21	1.61
216.58	-2.91
216.96	9.36
217.33	30.35
217.70	25.83
218.08	13.24
218.45	-7.10
218.83	-16.79
219.20	-7.10
219.58	-15.50
219.95	-34.87
220.32	-25.18
220.70	-18.08
221.07	-10.01
221.45	-5.81
221.82	-18.40
222.19	-0.32
222.57	-3.23
222.94	-4.20
223.32	-7.10
223.69	1.61
224.06	0.00
224.44	-10.65
224.81	-33.90
225.18	-30.35
225.56	-20.98
225.93	-10.33
226.31	-6.46
226.68	-8.39
227.05	2.91
227.43	3.55
227.80	12.59
228.17	7.10
228.55	-5.49
228.92	-16.14
229.29	-14.53
229.67	-14.53
230.04	-11.30
230.41	-13.88
230.79	-22.28
231.16	-10.33
231.53	-1.61
231.91	8.72
232.28	16.79
232.65	27.44
233.03	26.47
233.40	38.09
233.77	29.70
234.15	28.09
234.52	26.15
234.89	21.63
235.26	16.14
235.64	17.76
236.01	-3.55
236.38	7.43
236.76	13.56
237.13	-4.52
237.50	-7.43
237.87	-5.81
238.25	-0.32
238.62	5.81
238.99	-6.46
239.36	-1.61
239.74	13.56
240.11	19.69
240.48	10.01
240.85	8.72
241.23	9.04
241.60	12.91
241.97	2.26
242.34	-16.79
242.72	-26.15
243.09	-21.95
243.46	-36.16
243.83	-36.80
244.20	-44.23
244.58	-47.46
244.95	-40.35
245.32	-42.94
245.69	-51.65
246.07	-39.06
246.44	-42.29
246.81	-32.61
247.18	-30.67
247.55	-29.05
247.92	-11.30
248.30	2.26
248.67	-5.49
249.04	-10.33
249.41	-11.94
249.78	-27.44
250.16	-8.07
250.53	-13.56
250.90	-14.53
251.27	-6.13
251.64	5.17
252.01	1.61
252.39	26.80
252.76	9.04
253.13	0.65
253.50	-6.78
253.87	-8.72
254.24	-12.27
254.61	-15.50
254.98	-39.71
255.36	-34.54
255.73	-30.67
256.10	-29.70
256.47	-28.41
256.84	-17.11
257.21	-12.59
257.58	-0.97
257.95	-0.65
258.33	10.33
258.70	4.20
259.07	-5.17
259.44	-3.23
259.81	-3.23
260.18	-7.75
260.55	-0.65
260.92	-10.33
261.29	4.84
261.66	2.26
262.03	-14.20
262.40	-21.31
262.77	-10.01
263.15	-24.54
263.52	-41.97
263.89	-53.59
264.26	-47.78
264.63	-48.42
265.00	-46.49
265.37	-39.06
265.74	-32.28
266.11	-14.53
266.48	7.10
266.85	16.79
267.22	23.89
267.59	20.34
267.96	12.59
268.33	10.01
268.70	16.46
269.07	3.23
269.44	1.61
269.81	-11.94
270.18	5.49
270.55	-6.46
270.92	-13.56
271.29	-7.10
271.66	-9.68
272.03	-2.26
272.40	11.94
272.77	5.49
273.14	15.17
273.51	35.19
273.88	16.79
274.25	26.15
274.62	9.68
274.99	-6.13
275.36	1.61
275.73	-7.43
276.10	-11.30
276.47	-5.81
276.84	4.84
277.21	-1.94
277.58	2.26
277.94	0.32
278.31	23.24
278.68	16.79
279.05	1.61
279.42	-28.09
279.79	-21.95
280.16	-17.43
280.53	-18.72
280.90	-47.78
281.27	-63.60
281.64	-28.09
282.01	-20.02
282.37	-17.43
282.74	-7.75
283.11	-22.28
283.48	-19.05
283.85	-1.94
284.22	-19.69
284.59	-15.82
284.96	-31.64
285.33	-36.48
285.69	-13.24
286.06	-4.52
286.43	0.65
286.80	12.27
287.17	21.63
287.54	58.43
287.91	56.50
288.27	47.46
288.64	50.04
289.01	50.36
289.38	46.49
289.75	35.51
290.12	27.44
290.48	28.09
290.85	21.63
291.22	13.24
291.59	10.98
291.96	-8.07
292.33	-14.85
292.69	-35.83
293.06	-31.96
293.43	-37.77
293.80	-33.25
294.17	-35.51
294.53	-29.38
294.90	-14.85
295.27	3.87
295.64	9.36
296.01	29.05
296.37	30.99
296.74	29.70
297.11	33.57
297.48	16.46
297.84	7.75
298.21	15.50
298.58	6.78
298.95	3.87
299.31	15.50
299.68	17.43
300.05	27.44
300.42	38.09
300.78	17.11
301.15	24.21
301.52	19.05
301.89	14.53
302.25	8.72
302.62	8.39
302.99	-3.87
303.35	1.61
303.72	-10.98
304.09	-19.37
304.46	-20.66
304.82	-24.86
305.19	-20.34
305.56	-16.46
305.92	-20.02
306.29	-15.82
306.66	-2.58
307.02	-21.95
307.39	-15.17
307.76	-6.13
308.12	-4.20
308.49	-23.24
308.86	-34.22
309.23	-27.12
309.59	-15.17
309.96	-12.27
310.32	-18.72
310.69	-27.76
311.06	-0.97
311.42	2.26
311.79	-12.91
312.16	-24.21
312.52	-24.54
312.89	-32.61
313.26	-22.28
313.62	-21.63
313.99	-12.59
314.35	-6.46
314.72	-1.29
315.09	-2.58
315.45	18.72
315.82	14.20
316.19	17.11
316.55	8.72
316.92	17.43
317.28	27.12
317.65	22.28
318.02	0.65
318.38	-0.32
318.75	-15.82
319.11	-14.20
319.48	-12.59
319.84	-12.59
320.21	-11.30
320.58	1.61
320.94	24.54
321.31	28.73
321.67	26.47
322.04	11.62
322.40	8.72
322.77	13.56
323.13	13.88
323.50	-4.20
323.86	-8.07
324.23	5.81
324.60	7.75
324.96	3.87
325.33	-7.75
325.69	-17.11
326.06	-17.76
326.42	-19.05
326.79	-34.54
327.15	-30.67
327.52	-29.38
327.88	-26.80
328.25	-22.60
328.61	-33.25
328.98	-19.05
329.34	-21.31
329.71	-29.05
330.07	-28.09
330.44	-22.60
330.80	-20.02
331.16	-31.64
331.53	-38.42
331.89	-23.57
332.26	-8.39
332.62	-18.08
332.99	-7.10
333.35	-6.78
333.72	16.79
334.08	20.34
334.45	2.26
334.81	5.17
335.17	-0.32
335.54	4.52
335.90	1.94
336.27	-11.94
336.63	-19.69
337.00	-1.94
337.36	-20.66
337.72	-5.17
338.09	-18.40
338.45	-17.43
338.82	3.23
339.18	-1.61
339.54	-13.56
339.91	1.29
340.27	-6.78
340.63	-9.36
341.00	-11.62
341.36	4.20
341.73	6.46
342.09	25.18
342.45	34.54
342.82	52.62
343.18	60.69
343.54	81.03
343.91	48.10
344.27	62.63
344.63	55.20
345.00	43.58
345.36	33.90
345.72	14.85
346.09	-20.66
346.45	0.32
346.81	-4.52
347.18	10.01
347.54	7.43
347.90	6.46
348.27	10.01
348.63	15.17
348.99	-7.43
349.36	1.61
349.72	-21.63
350.08	-15.17
350.45	-25.83
350.81	-8.72
351.17	2.91
351.53	10.98
351.90	-2.26
352.26	-5.49
352.62	-0.97
352.98	-4.52
353.35	-19.37
353.71	-16.14
354.07	-11.62
354.44	-9.68
354.80	15.17
355.16	5.49
355.52	15.17
355.88	18.08
356.25	15.82
356.61	8.72
356.97	-9.68
357.33	-34.87
357.70	-15.50
358.06	-16.14
358.42	-21.63
358.78	-50.36
359.15	-42.29
359.51	-21.63
359.87	-25.18
360.23	-56.50
360.59	-54.24
360.95	-55.85
361.32	-29.70
361.68	-33.25
362.04	-49.72
362.40	-53.59
362.76	-54.24
363.13	-57.46
363.49	-44.87
363.85	-28.41
364.21	-44.23
364.57	-28.73
364.93	-17.11
365.30	10.33
365.66	21.31
366.02	23.24
366.38	6.78
366.74	39.71
367.10	47.46
367.46	60.05
367.83	45.52
368.19	47.46
368.55	48.42
368.91	34.87
369.27	16.79
369.63	7.43
369.99	-12.27
370.35	-13.88
370.71	-15.82
371.08	-20.66
371.44	-12.59
371.80	-5.81
372.16	7.43
372.52	11.30
372.88	24.21
373.24	16.46
373.60	21.63
373.96	38.74
374.32	38.74
374.68	30.02
375.04	36.80
375.40	29.05
375.76	36.48
376.13	35.19
376.49	23.24
376.85	10.65
377.21	15.17
377.57	10.98
377.93	9.68
378.29	10.33
378.65	14.20
379.01	19.69
379.37	29.70
379.73	15.17
380.09	24.54
380.45	13.56
380.81	2.26
381.17	4.84
381.53	1.29
381.89	6.46
382.25	19.69
382.61	13.56
382.97	12.91
383.33	9.68
383.69	0.97
384.05	3.55
384.41	-0.65
384.77	-2.91
385.13	4.84
385.49	9.36
385.85	13.56
386.20	18.72
386.56	1.94
386.92	-8.07
387.28	-15.17
387.64	-20.66
388.00	-21.31
388.36	-14.85
388.72	-8.72
389.08	-7.10
389.44	-9.36
389.80	-14.20
390.16	-10.01
390.52	-6.78
390.88	-17.43
391.23	-34.87
391.59	-23.89
391.95	-14.20
392.31	-20.34
392.67	-42.94
393.03	-19.37
393.39	-6.78
393.75	6.78
394.11	9.36
394.46	19.37
394.82	46.81
395.18	58.76
395.54	35.83
395.90	35.83
396.26	16.46
396.62	7.43
396.97	-8.39
397.33	-26.47
397.69	-35.19
398.05	-36.80
398.41	-30.99
398.77	-23.57
399.12	-10.65
399.48	1.94
399.84	5.81
400.20	11.30
400.56	28.73
400.91	19.37
401.27	2.26
401.63	-6.46
401.99	-6.78
402.35	-12.59
402.70	-18.08
403.06	-33.90
403.42	-35.19
403.78	-9.04
404.14	-14.85
404.49	-27.44
404.85	-19.69
405.21	-10.98
405.57	-1.61
405.92	-0.32
406.28	-2.91
406.64	-4.52
407.00	-11.30
407.35	-16.79
407.71	-9.68
408.07	-21.31
408.43	-19.37
408.78	-5.81
409.14	8.72
409.50	15.82
409.85	21.31
410.21	30.02
410.57	30.35
410.93	35.83
411.28	33.57
411.64	27.44
412.00	30.99
412.35	28.09
412.71	12.91
413.07	19.37
413.42	11.62
413.78	8.07
414.14	3.55
414.49	0.00
414.85	14.85
415.21	26.15
415.56	20.34
415.92	35.83
416.28	23.89
416.63	35.51
416.99	50.36
417.35	39.39
417.70	10.65
418.06	12.27
418.42	19.37
418.77	29.05
419.13	20.98
419.48	10.98
419.84	-2.58
420.20	19.69
420.55	7.10
420.91	-4.84
421.27	-4.84
421.62	15.82
421.98	17.76
422.33	30.67
422.69	28.41
423.05	35.51
423.40	27.76
423.76	28.09
424.11	-1.94
424.47	-1.61
424.82	10.98
425.18	-3.23
425.54	4.52
425.89	-6.13
426.25	-19.37
426.60	-21.95
426.96	-19.69
427.31	-39.06
427.67	-29.38
428.02	-33.57
428.38	-16.46
428.73	-16.14
429.09	-19.69
429.44	-34.87
429.80	-23.57
430.15	-21.95
430.51	-11.94
430.86	-18.08
431.22	-18.08
431.57	-10.01
431.93	0.32
432.28	-3.55
432.64	-8.72
432.99	4.84
433.35	20.98
433.70	8.39
434.06	19.05
434.41	17.43
434.77	20.98
435.12	33.57
435.48	2.26
435.83	-5.49
436.19	23.89
436.54	19.37
436.89	20.98
437.25	20.02
437.60	12.27
437.96	30.99
438.31	32.61
438.67	5.49
439.02	13.88
439.37	15.50
439.73	5.17
440.08	20.34
440.44	9.36
440.79	3.55
441.15	8.07
441.50	-0.32
441.85	-6.13
442.21	0.65
442.56	-5.49
442.91	-6.13
443.27	-11.62
443.62	0.97
443.98	2.91
444.33	-4.52
444.68	-4.52
445.04	-9.04
445.39	-0.32
445.74	-9.04
446.10	-9.36
446.45	-29.38
446.80	-6.78
447.16	-2.26
447.51	-2.91
447.86	0.32
448.22	18.72
448.57	15.50
448.92	29.05
449.28	8.39
449.63	2.91
449.98	-5.17
450.34	-5.17
450.69	-19.69
451.04	-16.79
451.40	-10.33
451.75	0.32
452.10	11.94
452.45	13.24
452.81	16.79
453.16	12.59
453.51	18.72
453.86	29.38
454.22	16.14
454.57	-7.75
454.92	-15.82
455.27	-27.44
455.63	-17.11
455.98	-36.80
456.33	-53.27
456.68	-53.91
457.04	-42.29
457.39	-33.90
457.74	-26.15
458.09	-31.96
458.45	-12.59
458.80	-11.30
459.15	9.68
459.50	5.81
459.85	0.00
460.21	8.39
460.56	14.85
460.91	11.94
461.26	3.87
461.61	-21.31
461.97	-18.40
462.32	6.78
462.67	-14.85
463.02	-6.13
463.37	-7.10
463.72	10.65
464.08	17.76
464.43	14.85
464.78	13.24
465.13	23.89
465.48	21.31
465.83	15.82
466.18	12.59
466.54	24.86
466.89	18.72
467.24	8.72
467.59	-0.32
467.94	-1.61
468.29	6.78
468.64	7.75
468.99	0.97
469.34	18.72
469.70	9.36
470.05	16.14
470.40	8.39
470.75	-8.39
471.10	-4.52
471.45	-11.62
471.80	-18.08
472.15	-16.79
472.50	-23.24
472.85	-15.17
473.20	-4.20
473.55	-20.98
473.90	-13.24
474.25	-25.18
474.61	-10.33
474.96	2.91
475.31	-4.20
475.66	1.29
476.01	20.66
476.36	26.47
476.71	46.49
477.06	43.58
477.41	42.61
477.76	48.10
478.11	41.00
478.46	25.50
478.81	21.31
479.16	2.58
479.51	-4.84
479.86	-1.61
480.21	0.97
480.56	0.97
480.91	4.52
481.26	5.81
481.61	20.66
481.96	21.63
482.31	0.32
482.66	-13.24
483.00	-10.98
483.35	-11.62
483.70	-27.76
484.05	-31.31
484.40	-40.68
484.75	-37.13
485.10	-23.24
485.45	-27.12
485.80	-26.15
486.15	-11.94
486.50	-13.56
486.85	-2.26
487.20	5.17
487.55	1.94
487.89	-14.85
488.24	-4.20
488.59	13.88
488.94	15.50
489.29	13.88
489.64	20.34
489.99	14.20
490.34	33.90
490.68	14.20
491.03	10.01
491.38	11.30
491.73	10.98
492.08	6.78
492.43	8.07
492.78	-7.10
493.12	3.23
493.47	-20.66
493.82	-32.28
494.17	-32.61
494.52	-38.42
494.87	-41.65
495.21	-42.94
495.56	-26.47
495.91	-5.81
496.26	13.56
496.61	20.34
496.95	21.63
497.30	19.05
497.65	26.47
498.00	5.49
498.35	-7.10
498.69	-23.24
499.04	-43.58
499.39	-44.87
499.74	-47.46
500.08	-49.07
500.43	-44.23
500.78	-59.08
501.13	-67.15
501.48	-60.37
501.82	-48.10
502.17	-44.55
502.52	-39.39
502.86	-61.34
503.21	-43.58
503.56	-39.39
503.91	-36.16
504.25	-39.71
504.60	-29.70
504.95	-28.09
505.30	4.84
505.64	11.62
505.99	15.50
506.34	27.76
506.68	25.18
507.03	24.21
507.38	33.57
507.72	16.14
508.07	-3.87
508.42	22.92
508.76	3.55
509.11	5.49
509.46	22.92
509.80	16.14
510.15	7.10
510.50	26.47
510.84	13.56
511.19	30.67
511.54	43.58
511.88	25.50
512.23	33.90
512.57	52.94
512.92	29.38
513.27	20.66
513.61	18.08
513.96	-7.10
514.31	-7.10
514.65	-17.43
515.00	-32.28
515.34	-21.31
515.69	-31.64
516.03	-30.67
516.38	-36.80
516.73	-45.20
517.07	-51.98
517.42	-44.87
517.76	-46.81
518.11	-32.93
518.45	-39.39
518.80	-25.18
519.15	-22.28
519.49	-5.17
519.84	3.87
520.18	4.52
520.53	-5.49
520.87	-2.26
521.22	-15.82
521.56	-9.04
521.91	-15.50
522.25	-24.21
522.60	-14.53
522.94	1.61
523.29	3.23
523.63	13.24
523.98	12.59
524.32	16.79
524.67	10.33
525.01	12.59
525.36	0.32
525.70	4.52
526.05	5.17
526.39	-9.36
526.74	-7.75
527.08	-2.91
527.43	-15.17
527.77	-19.37
528.12	-25.18
528.46	-11.94
528.80	-1.61
529.15	-8.72
529.49	-6.13
529.84	-2.58
530.18	7.75
530.53	-11.30
530.87	-15.50
531.21	-12.27
531.56	-10.98
531.90	-11.30
532.25	-8.07
532.59	-4.52
532.93	11.30
533.28	7.75
533.62	3.87
533.97	8.72
534.31	14.85
534.65	10.65
535.00	17.43
535.34	16.79
535.68	31.31
536.03	28.09
536.37	18.72
536.71	17.76
537.06	15.17
537.40	-2.91
537.74	-6.13
538.09	-32.61
538.43	-18.72
538.77	-26.15
539.12	-28.41
539.46	-18.40
539.80	-14.85
540.15	-14.53
540.49	5.17
540.83	-4.20
541.18	25.50
541.52	34.87
541.86	43.26
542.20	28.09
542.55	25.50
542.89	21.31
543.23	32.28
543.58	12.59
543.92	3.87
544.26	-14.85
544.60	1.94
544.95	19.37
545.29	10.33
545.63	1.94
545.97	-14.20
546.32	-24.86
546.66	-18.08
547.00	-2.26
547.34	-14.53
547.68	-4.52
548.03	-7.10
548.37	4.84
548.71	26.47
549.05	18.40
549.39	9.36
549.74	4.52
550.08	-1.29
550.42	2.26
550.76	7.43
551.10	-33.57
551.45	-11.62
551.79	-17.11
552.13	-13.88
552.47	-9.68
552.81	-8.07
553.15	0.65
553.50	30.35
553.84	32.93
554.18	32.28
554.52	47.46
554.86	42.94
555.20	47.46
555.54	38.74
555.88	34.87
556.23	15.17
556.57	22.60
556.91	-0.32
557.25	8.72
557.59	-16.79
557.93	-8.72
558.27	-0.65
558.61	-9.04
558.95	-13.24
559.29	16.79
559.64	-5.49
559.98	-28.41
560.32	-31.31
560.66	-32.28
561.00	-12.59
561.34	-36.16
561.68	-55.53
562.02	-38.42
562.36	6.46
562.70	-1.94
563.04	4.20
563.38	3.55
563.72	24.54
564.06	21.95
564.40	14.20
564.74	16.79
565.08	18.72
565.42	11.62
565.76	10.65
566.10	19.37
566.44	10.65
566.78	15.50
567.12	-3.23
567.46	-2.91
567.80	-6.46
568.14	-20.02
568.48	-20.98
568.82	-4.20
569.16	-24.54
569.50	-12.59
569.84	-8.72
570.18	15.50
570.52	30.67
570.86	24.21
571.20	16.79
571.54	20.02
571.88	18.40
572.22	24.86
572.55	3.23
572.89	10.01
573.23	30.67
573.57	21.95
573.91	35.19
574.25	26.80
574.59	9.36
574.93	12.59
575.27	3.87
575.61	-18.72
575.94	-13.88
576.28	-14.85
576.62	7.10
576.96	23.89
577.30	26.47
577.64	32.28
577.98	30.02
578.32	61.34
578.65	64.89
578.99	62.31
579.33	51.65
579.67	41.32
580.01	44.23
580.35	44.87
580.68	27.44
581.02	34.54
581.36	15.17
581.70	7.43
582.04	9.68
582.37	1.29
582.71	2.91
583.05	6.13
583.39	-9.68
583.73	-1.94
584.06	8.07
584.40	19.37
584.74	19.37
585.08	18.08
585.41	8.72
585.75	14.53
586.09	9.36
586.43	3.87
586.76	-14.85
587.10	-9.04
587.44	11.30
587.78	1.61
588.11	-4.52
588.45	-10.33
588.79	-17.43
589.13	-9.36
589.46	-20.02
589.80	-40.35
590.14	-29.38
590.47	-32.61
590.81	-27.76
591.15	-21.31
591.48	-21.95
591.82	-24.86
592.16	-23.24
592.50	-30.35
592.83	-26.80
593.17	-14.53
593.51	-8.39
593.84	-7.75
594.18	-3.23
594.51	-1.61
594.85	24.54
595.19	35.51
595.52	34.54
595.86	21.31
596.20	23.89
596.53	40.68
596.87	41.00
597.21	15.17
597.54	11.94
597.88	1.29
598.21	5.49
598.55	4.84
598.89	-0.65
599.22	-2.91
599.56	0.65
599.89	11.94
600.23	25.18
600.57	29.05
600.90	18.72
601.24	2.91
601.57	-8.72
601.91	-15.82
602.24	-38.42
602.58	-48.75
602.91	-53.27
603.25	-51.01
603.58	-53.59
603.92	-52.30
604.26	-43.58
604.59	-39.06
604.93	-32.61
605.26	-23.89
605.60	-0.97
605.93	10.01
606.27	6.46
606.60	6.46
606.94	20.02
607.27	26.15
607.61	28.41
607.94	9.36
608.28	-3.55
608.61	11.94
608.95	27.12
609.28	29.05
609.61	23.89
609.95	27.44
610.28	39.06
610.62	44.87
610.95	41.65
611.29	25.83
611.62	1.29
611.96	-7.10
612.29	-4.52
612.62	-5.49
612.96	2.58
613.29	6.13
613.63	2.91
613.96	20.98
614.29	38.09
614.63	29.70
614.96	26.15
615.30	22.60
615.63	33.25
615.96	24.86
616.30	25.18
616.63	21.31
616.97	35.83
617.30	32.28
617.63	35.51
617.97	29.38
618.30	42.61
618.63	36.80
618.97	26.47
619.30	8.72
619.63	10.33
619.97	6.46
620.30	1.29
620.63	-3.87
620.97	8.07
621.30	13.88
621.63	10.65
621.97	24.86
622.30	32.93
622.63	36.48
622.96	33.57
623.30	31.64
623.63	22.28
623.96	28.41
624.30	22.28
624.63	13.24
624.96	22.92
625.29	10.33
625.63	-11.30
625.96	-0.97
626.29	0.32
626.62	-13.24
626.96	-22.60
627.29	-30.02
627.62	-2.91
627.95	9.68
628.28	28.09
628.62	25.50
628.95	22.92
629.28	28.41
629.61	25.50
629.95	26.15
630.28	19.37
630.61	0.00
630.94	0.65
631.27	-3.23
631.60	-11.94
631.94	-30.99
632.27	-50.68
632.60	-21.63
632.93	-22.92
633.26	-42.94
633.59	-28.73
633.93	-19.69
634.26	-10.33
634.59	-2.26
634.92	-21.31
635.25	-20.02
635.58	-6.13
635.91	-15.82
636.24	-20.02
636.58	-6.78
636.91	0.97
637.24	1.61
637.57	-8.72
637.90	-9.04
638.23	-5.49
638.56	8.72
638.89	-7.43
639.22	-21.95
639.55	-27.12
639.88	-10.33
640.22	-9.04
640.55	-19.05
640.88	-21.95
641.21	-30.35
641.54	-15.82
641.87	-5.81
642.20	-23.24
642.53	-21.31
642.86	-16.14
643.19	-10.98
643.52	-9.68
643.85	-26.80
644.18	-38.74
644.51	-37.77
644.84	-28.09
645.17	-28.41
645.50	-53.59
645.83	-41.65
646.16	-22.60
646.49	-21.95
646.82	-10.65
647.15	-10.01
647.48	7.10
647.81	27.44
648.14	31.31
648.47	28.73
648.80	41.00
649.13	42.29
649.46	32.28
649.79	15.50
650.11	20.02
650.44	11.62
650.77	-2.26
651.10	-5.81
651.43	-0.97
651.76	-12.59
652.09	-7.43
652.42	-12.59
652.75	-4.84
653.08	9.04
653.41	-2.91
653.73	-14.85
654.06	8.72
654.39	14.53
654.72	25.18
655.05	14.20
655.38	4.84
655.71	21.95
656.04	24.54
656.36	18.72
656.69	4.84
657.02	-17.11
657.35	-20.66
657.68	-23.89
658.01	-33.90
658.33	-28.41
658.66	-30.35
658.99	-13.56
659.32	-16.14
659.65	0.97
659.97	6.78
660.30	1.61
660.63	-15.17
660.96	-5.49
661.29	-3.87
661.61	0.32
661.94	-3.55
662.27	8.39
662.60	25.83
662.92	28.41
663.25	11.30
663.58	-1.94
663.91	-15.50
664.23	-18.40
664.56	-23.24
664.89	-39.06
665.22	-37.77
665.54	-27.44
665.87	-31.31
666.20	-21.95
666.53	-37.13
666.85	-46.81
667.18	-37.45
667.51	-37.13
667.83	-49.72
668.16	-36.16
668.49	-30.99
668.81	-1.61
669.14	12.59
669.47	21.63
669.79	17.43
670.12	16.46
670.45	7.43
670.77	13.88
671.10	6.78
671.43	-0.97
671.75	-3.87
672.08	3.87
672.41	-4.20
672.73	10.01
673.06	9.04
673.39	10.98
673.71	-7.43
674.04	-14.85
674.36	-13.24
674.69	12.59
675.02	14.53
675.34	25.18
675.67	19.37
675.99	34.54
676.32	41.65
676.64	26.15
676.97	20.34
677.30	8.72
677.62	-18.72
677.95	-11.94
678.27	-24.54
678.60	-31.96
678.92	-21.63
679.25	-15.17
679.57	-23.57
679.90	-11.62
680.22	-0.32
680.55	23.24
680.88	13.56
681.20	17.43
681.53	1.94
681.85	11.62
682.18	30.35
682.50	3.87
682.83	-0.32
683.15	10.33
683.47	21.31
683.80	15.17
684.12	9.04
684.45	-20.66
684.77	-3.87
685.10	-23.89
685.42	-38.74
685.75	-48.75
686.07	-48.42
686.40	-53.59
686.72	-41.65
687.04	-53.91
687.37	-32.61
687.69	-13.88
688.02	-17.43
688.34	-12.27
688.67	-8.39
688.99	-11.62
689.31	0.32
689.64	-6.13
689.96	-5.49
690.28	2.91
690.61	31.64
690.93	52.94
691.26	67.47
691.58	51.33
691.90	40.03
692.23	23.24
692.55	27.44
692.87	19.05
693.20	3.23
693.52	-10.01
693.84	-9.36
694.17	2.26
694.49	6.46
694.81	5.49
695.14	-5.17
695.46	-6.78
695.78	-6.78
696.11	-12.59
696.43	-12.27
696.75	-5.81
697.08	-18.08
697.40	-39.06
697.72	-28.73
698.04	-24.54
698.37	-9.68
698.69	0.00
699.01	-5.49
699.33	0.00
699.66	20.02
699.98	10.98
700.30	4.84
700.62	-8.72
700.95	-32.61
701.27	-19.69
701.59	-11.30
701.91	-19.37
702.24	-22.92
702.56	-5.49
702.88	11.94
703.20	38.09
703.52	24.86
703.85	-0.32
704.17	13.24
704.49	18.40
704.81	10.33
705.13	7.10
705.45	3.87
705.78	2.26
706.10	3.87
706.42	-12.27
706.74	-4.52
707.06	-13.56
707.38	-18.72
707.71	-31.64
708.03	-25.50
708.35	-9.04
708.67	-0.65
708.99	-37.45
709.31	-29.05
709.63	-21.63
709.95	-27.76
710.27	-31.64
710.60	-15.17
710.92	-27.76
711.24	-2.26
711.56	-1.61
711.88	-7.75
712.20	-7.43
712.52	1.29
712.84	-16.14
713.16	-3.55
713.48	5.81
713.80	11.30
714.12	3.23
714.44	5.81
714.76	5.49
715.08	-2.91
715.40	0.65
715.72	-15.17
716.04	-43.26
716.36	-36.48
716.68	-20.98
717.00	-18.40
717.32	-16.79
717.64	-24.21
717.96	-24.54
718.28	10.98
718.60	10.65
718.92	9.04
719.24	-11.30
719.56	-3.55
719.88	-8.39
720.20	-2.26
720.52	-23.24
720.84	-36.80
721.16	-53.27
721.48	-24.54
721.80	-29.38
722.12	-2.91
722.44	-3.87
722.76	-0.32
723.08	8.07
723.40	15.17
723.72	-9.04
724.03	-3.23
724.35	-6.13
724.67	-2.26
724.99	12.59
725.31	13.56
725.63	10.65
725.95	0.32
726.27	-8.39
726.58	-15.17
726.90	-16.79
727.22	-21.63
727.54	-10.33
727.86	-6.78
728.18	22.92
728.50	24.86
728.81	22.60
729.13	28.41
729.45	23.89
729.77	17.11
730.09	23.24
730.40	6.13
730.72	4.20
731.04	-18.40
731.36	-4.20
731.68	6.13
731.99	9.36
732.31	3.87
732.63	7.75
732.95	16.14
733.27	41.97
733.58	25.50
733.90	15.82
734.22	6.13
734.54	18.72
734.85	24.86
735.17	27.44
735.49	9.04
735.80	3.23
736.12	-6.46
736.44	0.00
736.76	-11.94
737.07	-12.91
737.39	-26.47
737.71	-18.72
738.02	-18.08
738.34	-26.15
738.66	-25.83
738.97	-32.93
739.29	-42.29
739.61	-30.02
739.93	-28.73
740.24	-24.54
740.56	-19.37
740.87	-27.44
741.19	-23.89
741.51	-22.28
741.82	-30.67
742.14	-20.98
742.46	-20.98
742.77	-20.34
743.09	0.97
743.41	8.39
743.72	8.07
744.04	10.65
744.35	-2.91
744.67	-8.72
744.99	-9.68
745.30	-35.19
745.62	-30.35
745.93	-25.83
746.25	-34.87
746.56	-21.63
746.88	-13.56
747.20	1.94
747.51	10.65
747.83	4.20
748.14	24.21
748.46	34.54
748.77	17.43
749.09	1.94
749.40	3.55
749.72	11.94
750.03	11.30
750.35	-10.33
750.66	0.97
750.98	12.27
751.29	37.13
751.61	24.86
751.92	26.47
752.24	35.19
752.55	41.97
752.87	24.86
753.18	23.24
753.50	-0.97
753.81	8.39
754.13	-1.61
754.44	7.10
754.76	3.23
755.07	6.13
755.38	-0.97
755.70	0.32
756.01	-8.72
756.33	-3.55
756.64	-13.56
756.95	-14.20
757.27	-19.69
757.58	-16.46
757.90	3.55
758.21	10.33
758.52	11.30
758.84	-0.97
759.15	9.36
759.47	23.24
759.78	24.86
760.09	18.08
760.41	19.05
760.72	30.67
761.03	24.86
761.35	-7.43
761.66	-33.57
761.97	-33.25
762.29	-30.02
762.60	-31.31
762.91	-33.57
763.23	-23.24
763.54	11.30
763.85	34.54
764.17	36.48
764.48	38.74
764.79	27.76
765.10	23.57
765.42	15.17
765.73	15.17
766.04	16.14
766.36	21.63
766.67	0.32
766.98	14.85
767.29	5.49
767.61	13.56
767.92	4.20
768.23	-6.13
768.54	-12.59
768.86	-14.53
769.17	-8.07
769.48	-10.33
769.79	-0.65
770.10	-9.68
770.42	-11.30
770.73	-8.39
771.04	3.87
771.35	-23.24
771.66	-11.62
771.98	-10.98
772.29	-9.04
772.60	-15.82
772.91	-17.43
773.22	-11.62
773.53	10.33
773.85	13.56
774.16	-0.65
774.47	-6.13
774.78	5.17
775.09	11.62
775.40	-1.29
775.71	-4.84
776.02	-10.33
776.34	6.78
776.65	28.73
776.96	47.78
777.27	44.55
777.58	49.72
777.89	44.87
778.20	35.19
778.51	25.18
778.82	13.56
779.13	-1.94
779.44	-1.94
779.75	8.72
780.06	2.26
780.38	4.20
780.69	0.65
781.00	-8.39
781.31	-1.94
781.62	0.00
781.93	-10.01
782.24	-20.66
782.55	-20.34
782.86	-17.11
783.17	-19.69
783.48	-26.80
783.79	-31.96
784.10	-31.31
784.41	-19.69
784.72	-22.92
785.03	-30.67
785.34	-29.38
785.65	-27.44
785.96	-35.83
786.27	-29.38
786.57	-21.95
786.88	-19.05
787.19	-15.17
787.50	-22.60
787.81	-31.31
788.12	-26.15
788.43	-13.88
788.74	-28.73
789.05	-30.02
789.36	-26.15
789.67	-17.43
789.98	10.33
790.29	15.82
790.59	-4.84
790.90	10.33
791.21	6.46
791.52	7.75
791.83	13.24
792.14	-4.20
792.45	0.65
792.75	8.07
793.06	4.20
793.37	19.05
793.68	-4.20
793.99	6.13
794.30	8.72
794.60	21.95
794.91	28.09
795.22	38.09
795.53	26.15
795.84	60.37
796.15	62.95
796.45	46.49
796.76	37.45
797.07	28.73
797.38	14.85
797.68	8.72
797.99	-9.36
798.30	-9.68
798.61	-8.07
798.91	-24.54
799.22	-19.05
799.53	0.65
799.84	-1.94
800.14	8.39
800.45	-7.10
800.76	20.02
801.07	25.83
801.37	14.85
801.68	-14.53
801.99	-11.30
802.29	-13.24
802.60	-19.05
802.91	-33.25
803.22	-38.74
803.52	-27.12
803.83	-19.69
804.14	-26.15
804.44	-35.19
804.75	-23.89
805.06	-42.94
805.36	-49.72
805.67	-62.95
805.97	-66.83
806.28	-47.13
806.59	-38.42
806.89	-34.87
807.20	-13.56
807.51	15.50
807.81	33.57
808.12	45.52
808.42	47.13
808.73	30.67
809.04	28.73
809.34	30.35
809.65	15.50
809.95	-9.04
810.26	-1.61
810.56	-12.91
810.87	0.97
811.18	-3.55
811.48	-11.94
811.79	-25.18
812.09	-5.49
812.40	-20.66
812.70	-19.05
813.01	-30.67
813.31	-37.77
813.62	-38.74
813.92	-24.21
814.23	-41.00
814.53	-34.54
814.84	-12.59
815.14	-3.87
815.45	2.58
815.75	-3.23
816.06	-0.97
816.36	20.02
816.67	19.37
816.97	6.78
817.28	12.59
817.58	16.79
817.89	20.98
818.19	0.97
818.49	-12.27
818.80	1.61
819.10	-9.36
819.41	-16.79
819.71	-16.46
820.01	-18.40
820.32	-20.66
820.62	-38.74
820.93	-57.46
821.23	-45.84
821.53	-43.58
821.84	-49.39
822.14	-50.68
822.45	-53.59
822.75	-13.24
823.05	-1.94
823.36	0.32
823.66	6.78
823.96	19.69
824.27	17.76
824.57	49.07
824.87	31.64
825.18	24.54
825.48	9.04
825.78	20.34
826.09	18.08
826.39	27.44
826.69	9.36
827.00	5.49
827.30	27.44
827.60	33.25
827.90	15.82
828.21	24.54
828.51	27.44
828.81	12.91
829.11	18.72
829.42	-18.40
829.72	-15.82
830.02	-22.92
830.32	-24.54
830.63	-22.92
830.93	-3.87
831.23	-14.53
831.53	2.26
831.84	0.65
832.14	7.10
832.44	-3.55
832.74	-4.20
833.04	0.65
833.35	2.58
833.65	12.59
833.95	24.21
834.25	20.98
834.55	19.69
834.85	19.37
835.16	39.71
835.46	34.22
835.76	27.12
836.06	13.24
836.36	17.11
836.66	10.33
836.96	-2.26
837.26	-29.05
837.57	-16.14
837.87	-31.31
838.17	-33.25
838.47	-38.42
838.77	-26.80
839.07	-21.31
839.37	-9.68
839.67	0.00
839.97	0.97
840.27	7.10
840.57	14.53
840.88	10.65
841.18	23.57
841.48	17.11
841.78	7.43
842.08	32.28
842.38	26.80
842.68	20.66
842.98	28.73
843.28	11.30
843.58	16.79
843.88	26.47
844.18	15.50
844.48	21.31
844.78	30.67
845.08	24.54
845.38	34.54
845.68	39.71
845.98	25.83
846.28	15.50
846.58	13.24
846.88	-1.61
847.18	-10.33
847.48	-17.11
847.78	-32.28
848.07	-31.64
848.37	-25.50
848.67	-19.37
848.97	-13.56
849.27	-1.29
849.57	8.07
849.87	21.63
850.17	19.37
850.47	21.31
850.77	7.10
851.07	14.20
851.36	8.39
851.66	-14.20
851.96	-32.61
852.26	-36.48
852.56	-32.28
852.86	-25.50
853.16	-27.76
853.45	-29.70
853.75	-10.01
854.05	-12.59
854.35	-18.08
854.65	-27.12
854.95	-37.13
855.24	-29.70
855.54	-28.09
855.84	-15.82
856.14	-23.89
856.44	-8.07
856.73	9.04
857.03	29.38
857.33	31.96
857.63	37.77
857.93	18.40
858.22	48.75
858.52	48.75
858.82	35.19
859.12	42.29
859.41	29.70
859.71	25.83
860.01	35.19
860.30	25.83
860.60	20.34
860.90	21.63
861.20	0.00
861.49	-0.32
861.79	-2.91
862.09	3.87
862.38	-8.07
862.68	-8.07
862.98	-6.46
863.27	-5.17
863.57	12.27
863.87	18.08
864.16	7.75
864.46	11.62
864.76	19.37
865.05	16.46
865.35	21.95
865.65	5.17
865.94	5.81
866.24	3.87
866.54	19.37
866.83	26.15
867.13	38.09
867.42	39.39
867.72	28.73
868.02	10.01
868.31	18.40
868.61	4.52
868.90	-10.33
869.20	-7.43
869.49	-5.49
869.79	14.20
870.08	26.47
870.38	18.40
870.68	19.37
870.97	28.73
871.27	17.43
871.56	2.91
871.86	-4.52
872.15	2.91
872.45	2.58
872.74	3.87
873.04	5.17
873.33	8.07
873.63	12.59
873.92	1.29
874.22	-13.88
874.51	-2.26
874.81	-6.78
875.10	-5.17
875.40	-13.88
875.69	-6.13
875.98	9.04
876.28	33.57
876.57	24.54
876.87	22.60
877.16	12.27
877.46	20.98
877.75	15.82
878.04	14.20
878.34	-4.84
878.63	-2.58
878.93	10.01
879.22	-1.61
879.51	-4.84
879.81	4.84
880.10	-0.97
880.40	-17.43
880.69	-21.63
880.98	-42.94
881.28	-38.09
881.57	-24.54
881.86	-22.28
882.16	-22.60
882.45	16.79
882.74	20.98
883.04	39.71
883.33	48.42
883.62	13.56
883.92	22.60
884.21	11.30
884.50	-142.37
>>>>>End Processed Spectral Data<<<<<
