SpectraSuite Data File
++++++++++++++++++++++++++++++++++++
Date: Fri Feb 20 12:15:04 EST 2015
User: Administrator
Dark Spectrum Present: Yes
Reference Spectrum Present: No
Number of Sampled Component Spectra: 1
Spectrometers: SB2+H01071
Integration Time (usec): 5000000 (SB2+H01071)
Spectra Averaged: 1 (SB2+H01071)
Boxcar Smoothing: 3 (SB2+H01071)
Correct for Electrical Dark: No (SB2+H01071)
Strobe/Lamp Enabled: Yes (SB2+H01071)
Correct for Detector Non-linearity: No (SB2+H01071)
Correct for Stray Light: No (SB2+H01071)
Number of Pixels in Processed Spectrum: 2048
>>>>>Begin Processed Spectral Data<<<<<
191.06	-61.02
191.43	-61.02
191.81	-61.02
192.19	-24.86
192.56	-8.07
192.94	-0.65
193.31	-3.55
193.69	-10.65
194.07	-15.82
194.44	-15.50
194.82	-23.89
195.19	-32.28
195.57	-52.94
195.95	-44.55
196.32	-33.90
196.70	-42.29
197.07	-46.49
197.45	-50.04
197.83	-35.83
198.20	-13.56
198.58	-18.40
198.95	-15.82
199.33	0.00
199.70	9.68
200.08	0.00
200.46	-8.39
200.83	-2.58
201.21	12.59
201.58	9.04
201.96	16.79
202.33	21.31
202.71	38.42
203.09	26.15
203.46	16.14
203.84	11.94
204.21	7.43
204.59	-5.49
204.96	-16.79
205.34	-40.35
205.71	-25.50
206.09	-25.50
206.46	-38.09
206.84	-28.09
207.21	-28.41
207.59	-19.37
207.96	-18.08
208.34	-26.47
208.71	-28.09
209.09	-35.19
209.46	-42.61
209.84	-18.72
210.21	-25.50
210.59	6.78
210.96	12.91
211.34	11.62
211.71	28.09
212.09	23.57
212.46	-4.52
212.84	-1.61
213.21	-37.13
213.59	-26.15
213.96	-16.79
214.34	-21.95
214.71	-20.66
215.08	-16.46
215.46	-2.26
215.83	13.56
216.21	-10.65
216.58	-22.60
216.96	-16.46
217.33	-5.17
217.70	-5.17
218.08	-18.08
218.45	-26.15
218.83	-24.86
219.20	-16.79
219.58	-17.11
219.95	-25.18
220.32	-16.14
220.70	-5.81
221.07	-2.26
221.45	-3.23
221.82	0.65
222.19	-2.91
222.57	1.94
222.94	7.10
223.32	-6.13
223.69	14.20
224.06	25.83
224.44	19.37
224.81	19.69
225.18	6.46
225.56	3.23
225.93	8.07
226.31	4.52
226.68	-0.97
227.05	5.81
227.43	7.75
227.80	23.57
228.17	27.44
228.55	29.05
228.92	12.27
229.29	10.98
229.67	7.43
230.04	-2.58
230.41	-7.43
230.79	-17.11
231.16	-5.17
231.53	-2.58
231.91	-8.72
232.28	-14.53
232.65	-12.27
233.03	-12.91
233.40	2.58
233.77	-1.29
234.15	3.55
234.52	17.11
234.89	32.93
235.26	33.90
235.64	34.22
236.01	14.20
236.38	11.62
236.76	21.31
237.13	-2.26
237.50	-18.40
237.87	-18.08
238.25	-18.72
238.62	-11.62
238.99	-15.50
239.36	-17.76
239.74	12.91
240.11	15.82
240.48	14.20
240.85	23.89
241.23	23.89
241.60	12.91
241.97	-5.49
242.34	-32.61
242.72	-32.61
243.09	-29.05
243.46	-45.20
243.83	-48.10
244.20	-41.65
244.58	-31.31
244.95	-16.79
245.32	-9.04
245.69	-12.27
246.07	0.32
246.44	-10.98
246.81	4.20
247.18	2.58
247.55	-0.65
247.92	-11.30
248.30	-11.94
248.67	-8.39
249.04	-14.20
249.41	-21.63
249.78	-31.31
250.16	-13.56
250.53	-8.39
250.90	-11.30
251.27	-17.76
251.64	-14.53
252.01	-23.24
252.39	-4.52
252.76	-15.17
253.13	-18.08
253.50	-14.85
253.87	-25.18
254.24	-7.10
254.61	-18.72
254.98	-42.94
255.36	-53.27
255.73	-58.76
256.10	-56.82
256.47	-43.91
256.84	-37.77
257.21	-28.09
257.58	-15.50
257.95	-14.20
258.33	11.30
258.70	10.98
259.07	19.05
259.44	14.53
259.81	10.98
260.18	7.75
260.55	14.53
260.92	-14.85
261.29	-1.61
261.66	-14.85
262.03	-20.98
262.40	-20.98
262.77	-2.26
263.15	-8.72
263.52	-7.10
263.89	-21.95
264.26	-27.12
264.63	-33.57
265.00	-35.19
265.37	-39.39
265.74	-39.39
266.11	-26.47
266.48	-8.72
266.85	1.61
267.22	7.75
267.59	12.91
267.96	10.98
268.33	10.33
268.70	10.33
269.07	11.30
269.44	16.46
269.81	9.04
270.18	22.28
270.55	11.62
270.92	11.30
271.29	23.57
271.66	19.69
272.03	28.73
272.40	37.13
272.77	20.34
273.14	35.83
273.51	37.77
273.88	11.30
274.25	0.97
274.62	-21.63
274.99	-30.67
275.36	-15.17
275.73	-35.19
276.10	-22.60
276.47	-14.20
276.84	2.26
277.21	3.87
277.58	1.29
277.94	7.10
278.31	17.76
278.68	10.01
279.05	16.46
279.42	10.98
279.79	-1.94
280.16	12.91
280.53	0.97
280.90	-4.20
281.27	0.97
281.64	13.56
282.01	7.75
282.37	27.76
282.74	24.21
283.11	14.20
283.48	8.07
283.85	-0.32
284.22	-5.81
284.59	-20.98
284.96	-24.54
285.33	-19.05
285.69	3.87
286.06	6.78
286.43	11.94
286.80	13.88
287.17	35.19
287.54	47.13
287.91	39.39
288.27	25.83
288.64	36.16
289.01	47.78
289.38	41.32
289.75	32.93
290.12	30.02
290.48	25.50
290.85	16.14
291.22	1.61
291.59	-17.43
291.96	-21.63
292.33	-35.51
292.69	-47.78
293.06	-40.03
293.43	-32.61
293.80	-23.24
294.17	-17.43
294.53	-6.46
294.90	-5.81
295.27	1.61
295.64	18.08
296.01	27.44
296.37	32.28
296.74	38.42
297.11	27.12
297.48	41.00
297.84	38.09
298.21	24.54
298.58	7.75
298.95	4.20
299.31	0.32
299.68	14.85
300.05	22.28
300.42	24.21
300.78	2.58
301.15	16.79
301.52	4.20
301.89	4.52
302.25	-12.27
302.62	-20.98
302.99	-17.43
303.35	-15.17
303.72	-28.41
304.09	-27.76
304.46	-31.64
304.82	-22.28
305.19	-15.50
305.56	-31.64
305.92	-28.09
306.29	-10.65
306.66	12.59
307.02	12.91
307.39	2.26
307.76	19.69
308.12	38.74
308.49	42.61
308.86	26.80
309.23	13.24
309.59	0.32
309.96	-0.97
310.32	-25.50
310.69	-35.83
311.06	-29.38
311.42	-29.70
311.79	-38.09
312.16	-38.42
312.52	-31.96
312.89	-34.87
313.26	-24.21
313.62	-30.02
313.99	-29.38
314.35	-16.46
314.72	-5.81
315.09	-11.62
315.45	-1.61
315.82	-6.78
316.19	3.55
316.55	9.36
316.92	-4.52
317.28	0.32
317.65	9.68
318.02	-4.20
318.38	-10.33
318.75	-24.86
319.11	-23.24
319.48	-16.14
319.84	1.29
320.21	1.94
320.58	13.88
320.94	28.41
321.31	21.31
321.67	15.17
322.04	25.18
322.40	13.88
322.77	11.62
323.13	14.20
323.50	1.94
323.86	11.94
324.23	31.96
324.60	37.13
324.96	34.87
325.33	14.53
325.69	-0.97
326.06	5.81
326.42	5.81
326.79	-12.59
327.15	-33.57
327.52	-38.74
327.88	-10.98
328.25	-4.20
328.61	-12.27
328.98	-11.94
329.34	-7.75
329.71	-18.08
330.07	-30.02
330.44	-46.49
330.80	-40.35
331.16	-52.30
331.53	-45.52
331.89	-33.90
332.26	-4.52
332.62	12.59
332.99	27.76
333.35	29.38
333.72	40.35
334.08	45.20
334.45	23.89
334.81	26.15
335.17	28.73
335.54	29.38
335.90	30.35
336.27	23.57
336.63	19.69
337.00	37.77
337.36	24.86
337.72	13.88
338.09	-1.61
338.45	-1.61
338.82	10.65
339.18	4.52
339.54	-2.58
339.91	9.36
340.27	7.75
340.63	12.59
341.00	6.78
341.36	17.76
341.73	15.17
342.09	22.28
342.45	18.72
342.82	26.47
343.18	22.92
343.54	38.74
343.91	22.60
344.27	25.83
344.63	15.50
345.00	20.34
345.36	17.43
345.72	24.86
346.09	8.39
346.45	31.64
346.81	31.64
347.18	40.03
347.54	42.29
347.90	33.90
348.27	28.09
348.63	29.70
348.99	-0.65
349.36	0.97
349.72	-13.56
350.08	-24.86
350.45	-27.44
350.81	-15.50
351.17	-11.62
351.53	-2.58
351.90	1.61
352.26	9.68
352.62	7.43
352.98	5.17
353.35	-8.39
353.71	-2.58
354.07	-2.91
354.44	-22.92
354.80	-18.40
355.16	-7.10
355.52	-7.10
355.88	-8.07
356.25	-20.02
356.61	-21.63
356.97	-23.24
357.33	-26.47
357.70	-34.22
358.06	-30.35
358.42	-26.15
358.78	-42.29
359.15	-36.16
359.51	-30.02
359.87	-33.57
360.23	-29.38
360.59	-35.83
360.95	-26.47
361.32	-7.10
361.68	-12.91
362.04	-18.40
362.40	-18.72
362.76	-37.13
363.13	-28.09
363.49	-44.55
363.85	-39.71
364.21	-46.81
364.57	-20.98
364.93	-20.98
365.30	2.91
365.66	3.87
366.02	5.17
366.38	-2.26
366.74	23.57
367.10	20.34
367.46	26.15
367.83	20.98
368.19	25.83
368.55	33.90
368.91	28.09
369.27	6.13
369.63	6.78
369.99	-10.33
370.35	-5.81
370.71	-2.58
371.08	-0.32
371.44	-0.97
371.80	8.07
372.16	20.98
372.52	33.25
372.88	28.41
373.24	17.11
373.60	19.37
373.96	36.16
374.32	38.09
374.68	17.76
375.04	21.63
375.40	1.61
375.76	15.17
376.13	15.17
376.49	9.04
376.85	1.94
377.21	10.98
377.57	6.78
377.93	12.91
378.29	10.98
378.65	11.62
379.01	11.30
379.37	12.27
379.73	-3.87
380.09	4.52
380.45	13.24
380.81	-8.39
381.17	-4.20
381.53	2.26
381.89	3.55
382.25	7.43
382.61	-2.26
382.97	-1.94
383.33	8.39
383.69	5.49
384.05	7.43
384.41	10.65
384.77	17.11
385.13	23.89
385.49	17.76
385.85	18.08
386.20	27.76
386.56	-1.29
386.92	-23.24
387.28	-33.57
387.64	-35.51
388.00	-43.26
388.36	-51.98
388.72	-54.24
389.08	-53.91
389.44	-30.67
389.80	-31.64
390.16	-33.90
390.52	-23.57
390.88	-11.30
391.23	-30.35
391.59	-1.61
391.95	-7.75
392.31	0.32
392.67	-14.53
393.03	-6.13
393.39	-14.53
393.75	3.23
394.11	-0.97
394.46	8.39
394.82	19.37
395.18	23.57
395.54	10.98
395.90	20.02
396.26	-0.97
396.62	-16.46
396.97	-29.38
397.33	-43.26
397.69	-20.34
398.05	-13.24
398.41	-4.20
398.77	-12.91
399.12	-4.84
399.48	5.49
399.84	1.61
400.20	-15.82
400.56	-16.14
400.91	-35.19
401.27	-42.61
401.63	-30.35
401.99	-30.67
402.35	-20.34
402.70	-28.73
403.06	-36.48
403.42	-30.99
403.78	2.58
404.14	-3.23
404.49	-14.20
404.85	-19.69
405.21	-20.98
405.57	-16.14
405.92	0.65
406.28	-4.52
406.64	-17.76
407.00	-8.72
407.35	-21.31
407.71	-20.34
408.07	-15.82
408.43	-26.47
408.78	-32.93
409.14	-14.53
409.50	-10.01
409.85	9.04
410.21	14.20
410.57	8.07
410.93	4.20
411.28	12.91
411.64	5.49
412.00	-21.31
412.35	-16.14
412.71	-0.32
413.07	-5.81
413.42	-3.55
413.78	-9.68
414.14	-1.94
414.49	4.52
414.85	15.50
415.21	12.59
415.56	30.02
415.92	52.30
416.28	50.68
416.63	43.58
416.99	63.60
417.35	50.68
417.70	27.76
418.06	23.24
418.42	7.43
418.77	8.39
419.13	-5.17
419.48	-17.11
419.84	-28.41
420.20	-9.04
420.55	-21.31
420.91	-30.35
421.27	-13.24
421.62	6.78
421.98	12.59
422.33	7.75
422.69	10.33
423.05	11.62
423.40	12.27
423.76	-5.81
424.11	-10.65
424.47	-5.81
424.82	20.02
425.18	-2.58
425.54	6.78
425.89	-0.32
426.25	0.00
426.60	-7.75
426.96	-14.85
427.31	-30.67
427.67	-19.69
428.02	-15.17
428.38	-3.87
428.73	-2.91
429.09	-8.72
429.44	-15.17
429.80	-16.14
430.15	-3.55
430.51	-10.65
430.86	-7.43
431.22	-8.39
431.57	-1.94
431.93	10.65
432.28	21.63
432.64	3.87
432.99	14.85
433.35	20.66
433.70	10.33
434.06	13.56
434.41	18.40
434.77	11.94
435.12	33.90
435.48	19.69
435.83	15.50
436.19	25.83
436.54	26.47
436.89	10.01
437.25	15.82
437.60	-4.20
437.96	-6.46
438.31	19.69
438.67	23.89
439.02	17.11
439.37	15.17
439.73	-14.53
440.08	1.29
440.44	-0.97
440.79	-38.09
441.15	-44.87
441.50	-29.38
441.85	-24.21
442.21	-2.58
442.56	-6.13
442.91	-12.91
443.27	-5.49
443.62	-5.49
443.98	-4.52
444.33	-11.94
444.68	-14.85
445.04	-29.70
445.39	-13.24
445.74	-20.66
446.10	-16.46
446.45	-38.42
446.80	-25.18
447.16	-19.69
447.51	-13.24
447.86	-13.24
448.22	1.94
448.57	-4.20
448.92	-3.87
449.28	-4.20
449.63	-14.20
449.98	-2.58
450.34	-0.65
450.69	-24.21
451.04	-25.83
451.40	-9.36
451.75	-20.66
452.10	-15.82
452.45	-23.57
452.81	-26.80
453.16	-10.01
453.51	-16.46
453.86	-28.73
454.22	-26.47
454.57	-16.79
454.92	-20.66
455.27	-24.54
455.63	-24.54
455.98	-21.31
456.33	-36.80
456.68	-33.90
457.04	-45.52
457.39	-36.48
457.74	-32.93
458.09	-43.26
458.45	-30.67
458.80	-21.31
459.15	-15.82
459.50	-20.98
459.85	-29.70
460.21	-26.80
460.56	-23.89
460.91	-16.46
461.26	-8.39
461.61	-12.91
461.97	-3.23
462.32	10.01
462.67	-1.29
463.02	17.43
463.37	9.36
463.72	10.33
464.08	-1.94
464.43	-11.94
464.78	-16.14
465.13	1.94
465.48	-14.53
465.83	-9.36
466.18	-9.36
466.54	13.56
466.89	14.20
467.24	18.40
467.59	12.27
467.94	14.85
468.29	11.30
468.64	10.98
468.99	6.13
469.34	3.87
469.70	-10.01
470.05	-10.65
470.40	-3.23
470.75	-23.57
471.10	-18.08
471.45	-43.58
471.80	-30.02
472.15	-28.41
472.50	-40.68
472.85	-45.84
473.20	-29.05
473.55	-23.57
473.90	-10.98
474.25	-23.57
474.61	-11.62
474.96	-4.52
475.31	0.32
475.66	-1.61
476.01	-5.81
476.36	10.33
476.71	22.28
477.06	17.11
477.41	27.12
477.76	17.11
478.11	25.18
478.46	29.38
478.81	13.56
479.16	6.13
479.51	-0.97
479.86	-8.07
480.21	-1.94
480.56	0.32
480.91	-14.85
481.26	10.65
481.61	32.28
481.96	38.09
482.31	31.64
482.66	21.95
483.00	22.28
483.35	26.80
483.70	-1.29
484.05	-28.09
484.40	-30.35
484.75	-30.02
485.10	-30.99
485.45	-38.09
485.80	-34.87
486.15	-26.15
486.50	-25.83
486.85	-31.96
487.20	-26.15
487.55	-20.02
487.89	-28.73
488.24	-30.35
488.59	-11.62
488.94	-9.04
489.29	-13.56
489.64	-20.98
489.99	-26.80
490.34	-18.40
490.68	-13.88
491.03	-29.70
491.38	-15.50
491.73	-14.20
492.08	-3.55
492.43	7.43
492.78	8.39
493.12	4.20
493.47	-2.91
493.82	-13.56
494.17	-3.23
494.52	-5.17
494.87	-20.98
495.21	-32.93
495.56	-32.93
495.91	-30.67
496.26	-24.86
496.61	-11.30
496.95	-20.34
497.30	-1.29
497.65	12.27
498.00	10.65
498.35	20.02
498.69	14.53
499.04	-12.91
499.39	-11.94
499.74	-15.17
500.08	-26.80
500.43	-20.98
500.78	-28.73
501.13	-41.65
501.48	-28.09
501.82	-16.46
502.17	-18.40
502.52	-11.62
502.86	-31.31
503.21	-22.28
503.56	-8.72
503.91	-7.43
504.25	-7.75
504.60	-10.65
504.95	-17.43
505.30	12.27
505.64	14.85
505.99	13.88
506.34	22.92
506.68	25.18
507.03	18.40
507.38	31.31
507.72	21.95
508.07	6.46
508.42	9.04
508.76	-7.10
509.11	-1.61
509.46	16.79
509.80	6.13
510.15	4.52
510.50	6.78
510.84	21.31
511.19	22.28
511.54	14.85
511.88	8.72
512.23	29.05
512.57	34.54
512.92	40.68
513.27	22.28
513.61	33.25
513.96	30.02
514.31	30.99
514.65	16.46
515.00	-6.78
515.34	-5.17
515.69	0.97
516.03	20.66
516.38	14.53
516.73	-5.17
517.07	-6.46
517.42	6.78
517.76	3.23
518.11	2.58
518.45	-21.95
518.80	-24.21
519.15	-9.36
519.49	-4.52
519.84	8.72
520.18	-0.65
520.53	-14.85
520.87	-20.34
521.22	-19.05
521.56	-3.55
521.91	-6.78
522.25	-27.44
522.60	-1.29
522.94	28.41
523.29	22.60
523.63	33.90
523.98	21.95
524.32	29.05
524.67	27.76
525.01	10.65
525.36	0.65
525.70	2.91
526.05	4.20
526.39	-0.00
526.74	2.58
527.08	11.30
527.43	10.98
527.77	-4.84
528.12	4.20
528.46	1.94
528.80	10.98
529.15	1.61
529.49	1.61
529.84	-0.32
530.18	10.01
530.53	-10.33
530.87	-10.98
531.21	-32.61
531.56	-29.38
531.90	-30.67
532.25	-34.87
532.59	-25.18
532.93	0.32
533.28	-8.72
533.62	6.78
533.97	-7.75
534.31	-2.58
534.65	4.52
535.00	-0.65
535.34	-6.78
535.68	7.10
536.03	-3.23
536.37	4.20
536.71	10.01
537.06	5.81
537.40	2.26
537.74	-8.72
538.09	-25.83
538.43	-22.60
538.77	-26.80
539.12	-30.99
539.46	-16.46
539.80	-18.08
540.15	-23.89
540.49	-4.84
540.83	6.78
541.18	24.54
541.52	22.60
541.86	25.50
542.20	26.15
542.55	40.68
542.89	44.55
543.23	43.91
543.58	23.89
543.92	20.98
544.26	9.68
544.60	14.20
544.95	23.57
545.29	5.49
545.63	-7.75
545.97	-5.49
546.32	-8.72
546.66	-12.91
547.00	-1.61
547.34	-8.72
547.68	-2.91
548.03	11.30
548.37	12.59
548.71	20.34
549.05	17.11
549.39	10.65
549.74	5.49
550.08	-6.13
550.42	-12.27
550.76	-17.11
551.10	-41.97
551.45	-36.80
551.79	-41.97
552.13	-41.00
552.47	-27.44
552.81	-31.31
553.15	-13.24
553.50	3.23
553.84	8.72
554.18	14.20
554.52	27.76
554.86	29.70
555.20	37.77
555.54	21.63
555.88	27.44
556.23	20.34
556.57	16.79
556.91	-0.97
557.25	7.75
557.59	-7.43
557.93	5.81
558.27	11.62
558.61	-1.29
558.95	-12.27
559.29	-6.46
559.64	-19.69
559.98	-33.90
560.32	-31.31
560.66	-38.42
561.00	-20.66
561.34	-36.16
561.68	-35.51
562.02	-37.77
562.36	-10.98
562.70	-19.69
563.04	-12.91
563.38	-30.99
563.72	-22.60
564.06	-19.69
564.40	-13.56
564.74	-22.28
565.08	-18.72
565.42	-36.48
565.76	-28.41
566.10	-5.49
566.44	-15.17
566.78	-21.95
567.12	-13.88
567.46	-13.24
567.80	-3.23
568.14	0.97
568.48	4.52
568.82	20.34
569.16	10.01
569.50	13.24
569.84	9.68
570.18	38.74
570.52	45.52
570.86	37.45
571.20	28.09
571.54	24.86
571.88	20.02
572.22	24.86
572.55	-15.82
572.89	-13.24
573.23	-7.10
573.57	-13.56
573.91	9.68
574.25	4.84
574.59	-5.17
574.93	4.84
575.27	7.75
575.61	-12.59
575.94	5.17
576.28	7.10
576.62	17.43
576.96	22.92
577.30	21.31
577.64	10.98
577.98	22.28
578.32	18.40
578.65	5.17
578.99	3.87
579.33	10.65
579.67	15.50
580.01	24.54
580.35	20.98
580.68	16.14
581.02	11.30
581.36	7.10
581.70	-2.26
582.04	-10.01
582.37	-27.12
582.71	-34.22
583.05	-19.05
583.39	-18.08
583.73	-28.09
584.06	-30.99
584.40	-13.88
584.74	-4.20
585.08	-13.88
585.41	-19.69
585.75	-7.43
586.09	-0.65
586.43	2.26
586.76	-28.09
587.10	-34.22
587.44	-13.56
587.78	-24.54
588.11	-34.87
588.45	-39.39
588.79	-45.52
589.13	-24.86
589.46	-24.86
589.80	-15.50
590.14	-9.68
590.47	-14.85
590.81	-1.94
591.15	-1.29
591.48	-12.59
591.82	-5.17
592.16	-12.91
592.50	-19.37
592.83	-6.46
593.17	-2.26
593.51	2.26
593.84	5.81
594.18	3.55
594.51	13.56
594.85	27.12
595.19	31.96
595.52	23.89
595.86	25.83
596.20	38.74
596.53	48.42
596.87	33.25
597.21	20.34
597.54	44.23
597.88	41.65
598.21	49.72
598.55	60.37
598.89	54.24
599.22	55.85
599.56	53.27
599.89	27.44
600.23	21.31
600.57	6.78
600.90	-12.91
601.24	-15.82
601.57	-11.62
601.91	-22.28
602.24	-30.02
602.58	-16.46
602.91	-14.53
603.25	-5.17
603.58	-2.26
603.92	-5.17
604.26	7.10
604.59	2.26
604.93	-12.27
605.26	-4.20
605.60	4.52
605.93	12.91
606.27	-6.13
606.60	-3.87
606.94	15.82
607.27	11.94
607.61	10.33
607.94	9.04
608.28	-1.61
608.61	20.98
608.95	26.15
609.28	16.46
609.61	29.05
609.95	31.64
610.28	27.76
610.62	19.37
610.95	12.91
611.29	11.30
611.62	0.97
611.96	-4.20
612.29	2.58
612.62	-13.88
612.96	0.00
613.29	-3.87
613.63	8.07
613.96	21.31
614.29	35.51
614.63	35.51
614.96	35.19
615.30	27.44
615.63	30.67
615.96	17.76
616.30	11.94
616.63	1.61
616.97	-12.91
617.30	-10.01
617.63	-1.94
617.97	5.49
618.30	1.29
618.63	1.29
618.97	-12.91
619.30	-4.52
619.63	-2.91
619.97	0.32
620.30	-6.13
620.63	-6.78
620.97	-10.65
621.30	7.75
621.63	3.23
621.97	14.20
622.30	11.62
622.63	14.53
622.96	24.86
623.30	28.41
623.63	43.91
623.96	39.71
624.30	36.80
624.63	36.80
624.96	40.03
625.29	18.40
625.63	16.14
625.96	9.04
626.29	20.02
626.62	21.31
626.96	11.30
627.29	4.20
627.62	23.24
627.95	27.76
628.28	28.41
628.62	28.09
628.95	0.97
629.28	-13.56
629.61	-9.04
629.95	-10.33
630.28	-14.85
630.61	-29.05
630.94	-33.25
631.27	-22.60
631.60	-10.98
631.94	-11.62
632.27	-8.07
632.60	3.23
632.93	-2.58
633.26	-12.27
633.59	-4.52
633.93	5.49
634.26	0.00
634.59	-19.05
634.92	-22.28
635.25	-11.62
635.58	-16.14
635.91	-18.72
636.24	-20.98
636.58	-0.97
636.91	4.84
637.24	-6.78
637.57	-7.43
637.90	-3.55
638.23	4.84
638.56	10.33
638.89	-7.43
639.22	-6.13
639.55	-1.94
639.88	-11.62
640.22	-4.20
640.55	-12.59
640.88	-3.87
641.21	-21.31
641.54	-31.31
641.87	-22.28
642.20	-25.18
642.53	-36.80
642.86	-41.97
643.19	-55.20
643.52	-45.20
643.85	-29.38
644.18	-41.65
644.51	-40.35
644.84	-15.50
645.17	-12.27
645.50	-33.57
645.83	-19.69
646.16	-7.43
646.49	-2.58
646.82	10.01
647.15	-2.91
647.48	10.33
647.81	24.86
648.14	27.44
648.47	12.27
648.80	20.34
649.13	29.05
649.46	25.50
649.79	17.11
650.11	27.76
650.44	36.80
650.77	23.57
651.10	15.17
651.43	19.05
651.76	10.33
652.09	2.26
652.42	-8.07
652.75	-32.61
653.08	-10.01
653.41	-12.59
653.73	-31.31
654.06	-24.54
654.39	-8.39
654.72	-2.26
655.05	9.04
655.38	-2.91
655.71	0.65
656.04	-5.81
656.36	20.02
656.69	-0.97
657.02	-6.46
657.35	-22.92
657.68	-15.82
658.01	-12.91
658.33	-10.33
658.66	-30.99
658.99	-15.82
659.32	-23.89
659.65	-4.20
659.97	-22.28
660.30	-30.02
660.63	-28.09
660.96	-28.73
661.29	-14.53
661.61	-5.49
661.94	-11.62
662.27	6.46
662.60	7.75
662.92	10.01
663.25	9.04
663.58	-10.01
663.91	-10.65
664.23	-21.31
664.56	-14.20
664.89	-17.11
665.22	-16.79
665.54	-3.55
665.87	-0.32
666.20	-8.39
666.53	-6.78
666.85	-10.33
667.18	9.36
667.51	6.46
667.83	-15.82
668.16	-5.17
668.49	10.98
668.81	16.46
669.14	10.01
669.47	0.32
669.79	6.13
670.12	15.50
670.45	1.29
670.77	-9.04
671.10	-8.39
671.43	-12.27
671.75	-10.65
672.08	-10.98
672.41	-20.34
672.73	-22.92
673.06	-32.28
673.39	-26.47
673.71	-31.96
674.04	-37.13
674.36	-36.80
674.69	-20.66
675.02	-21.31
675.34	-5.17
675.67	-7.10
675.99	16.79
676.32	14.53
676.64	9.36
676.97	10.33
677.30	17.76
677.62	12.91
677.95	8.07
678.27	-17.43
678.60	-6.13
678.92	1.29
679.25	-4.52
679.57	-10.01
679.90	-14.85
680.22	-2.58
680.55	15.17
680.88	-7.43
681.20	-21.63
681.53	-23.24
681.85	-16.14
682.18	-14.85
682.50	-26.80
682.83	-22.92
683.15	-14.85
683.47	-11.30
683.80	-11.30
684.12	-5.17
684.45	2.91
684.77	10.33
685.10	-11.94
685.42	-6.78
685.75	-5.17
686.07	-9.04
686.40	-15.17
686.72	-29.05
687.04	-42.29
687.37	-21.31
687.69	-10.98
688.02	-12.91
688.34	11.94
688.67	8.39
688.99	12.59
689.31	32.93
689.64	24.86
689.96	11.30
690.28	29.38
690.61	11.94
690.93	32.28
691.26	46.49
691.58	15.17
691.90	13.24
692.23	11.30
692.55	6.13
692.87	7.10
693.20	-2.58
693.52	-5.49
693.84	8.72
694.17	8.39
694.49	3.23
694.81	1.61
695.14	-12.59
695.46	-15.17
695.78	-12.91
696.11	-10.33
696.43	-15.50
696.75	-17.76
697.08	-21.63
697.40	-6.78
697.72	-0.32
698.04	8.39
698.37	15.17
698.69	24.21
699.01	32.93
699.33	38.09
699.66	47.78
699.98	36.80
700.30	21.63
700.62	13.24
700.95	-0.97
701.27	0.65
701.59	-10.65
701.91	-33.90
702.24	-38.74
702.56	-21.31
702.88	-15.17
703.20	6.46
703.52	10.65
703.85	11.30
704.17	28.41
704.49	29.38
704.81	8.72
705.13	14.20
705.45	6.46
705.78	2.26
706.10	-2.26
706.42	-20.98
706.74	-6.13
707.06	3.23
707.38	-2.58
707.71	-3.23
708.03	-9.36
708.35	4.84
708.67	21.95
708.99	-1.94
709.31	-9.36
709.63	-10.33
709.95	-16.46
710.27	-20.98
710.60	-10.33
710.92	-27.44
711.24	-17.11
711.56	-17.11
711.88	-20.66
712.20	-35.51
712.52	-18.08
712.84	-40.03
713.16	-20.02
713.48	-12.59
713.80	-6.46
714.12	-8.39
714.44	13.24
714.76	19.05
715.08	19.69
715.40	11.62
715.72	9.04
716.04	-3.23
716.36	-1.94
716.68	4.52
717.00	-3.23
717.32	2.91
717.64	0.65
717.96	4.52
718.28	23.24
718.60	30.99
718.92	24.86
719.24	22.28
719.56	32.61
719.88	17.11
720.20	6.78
720.52	-2.58
720.84	-13.56
721.16	-10.98
721.48	-6.78
721.80	-10.33
722.12	4.52
722.44	14.53
722.76	19.37
723.08	14.85
723.40	9.36
723.72	-5.81
724.03	-7.43
724.35	0.65
724.67	-0.65
724.99	3.55
725.31	17.76
725.63	21.95
725.95	13.56
726.27	6.13
726.58	6.46
726.90	12.27
727.22	11.94
727.54	13.24
727.86	6.78
728.18	40.03
728.50	34.54
728.81	31.96
729.13	26.80
729.45	7.75
729.77	-2.91
730.09	1.29
730.40	-35.19
730.72	-32.93
731.04	-55.85
731.36	-45.84
731.68	-17.11
731.99	-10.65
732.31	-8.39
732.63	8.39
732.95	12.59
733.27	34.22
733.58	29.05
733.90	-0.32
734.22	-3.23
734.54	3.87
734.85	8.39
735.17	13.56
735.49	15.17
735.80	-5.81
736.12	0.97
736.44	-3.87
736.76	-33.57
737.07	-37.13
737.39	-42.94
737.71	-51.33
738.02	-34.87
738.34	-40.03
738.66	-22.60
738.97	-18.08
739.29	-23.57
739.61	-23.24
739.93	-6.46
740.24	-13.88
740.56	-4.84
740.87	-18.40
741.19	-8.07
741.51	8.72
741.82	18.72
742.14	18.40
742.46	16.46
742.77	8.39
743.09	8.07
743.41	-7.10
743.72	-20.02
744.04	-30.02
744.35	-42.61
744.67	-36.16
744.99	-30.67
745.30	-42.29
745.62	-14.20
745.93	-8.07
746.25	-14.85
746.56	1.94
746.88	-10.65
747.20	5.17
747.51	19.05
747.83	12.27
748.14	8.39
748.46	14.53
748.77	1.61
749.09	16.46
749.40	13.88
749.72	8.07
750.03	8.07
750.35	14.53
750.66	18.40
750.98	26.15
751.29	24.54
751.61	12.27
751.92	29.70
752.24	30.99
752.55	31.31
752.87	21.63
753.18	9.04
753.50	0.65
753.81	5.49
754.13	-19.37
754.44	-25.50
754.76	-33.57
755.07	-18.40
755.38	-21.63
755.70	-22.92
756.01	-28.73
756.33	-14.53
756.64	-16.79
756.95	-23.57
757.27	-39.06
757.58	-31.31
757.90	-31.64
758.21	-19.37
758.52	-15.50
758.84	-23.89
759.15	-12.59
759.47	-2.26
759.78	-9.68
760.09	5.81
760.41	-5.49
760.72	0.32
761.03	8.07
761.35	-5.17
761.66	-0.65
761.97	17.43
762.29	16.14
762.60	21.63
762.91	11.94
763.23	16.79
763.54	34.54
763.85	41.00
764.17	33.25
764.48	27.12
764.79	17.43
765.10	24.86
765.42	34.54
765.73	30.35
766.04	15.82
766.36	18.72
766.67	0.32
766.98	1.29
767.29	-9.68
767.61	-10.33
767.92	-2.91
768.23	-17.11
768.54	-29.70
768.86	-12.59
769.17	-0.65
769.48	-5.17
769.79	-5.81
770.10	-12.59
770.42	-7.10
770.73	2.26
771.04	7.75
771.35	3.23
771.66	-3.23
771.98	-7.10
772.29	-11.30
772.60	-13.88
772.91	-18.72
773.22	-26.80
773.53	-23.57
773.85	-3.55
774.16	-3.55
774.47	-3.87
774.78	1.94
775.09	12.27
775.40	11.94
775.71	6.13
776.02	5.49
776.34	4.84
776.65	23.89
776.96	37.45
777.27	38.74
777.58	37.45
777.89	37.13
778.20	28.73
778.51	23.57
778.82	4.52
779.13	0.00
779.44	-6.46
779.75	4.84
780.06	2.26
780.38	31.96
780.69	45.20
781.00	45.84
781.31	48.10
781.62	44.87
781.93	36.48
782.24	50.36
782.55	23.24
782.86	18.72
783.17	25.50
783.48	12.27
783.79	20.02
784.10	9.04
784.41	-10.65
784.72	-6.13
785.03	-14.20
785.34	-16.79
785.65	-8.39
785.96	-10.33
786.27	-3.23
786.57	-1.61
786.88	1.29
787.19	4.52
787.50	-6.46
787.81	-11.30
788.12	-26.47
788.43	-5.81
788.74	7.43
789.05	-1.94
789.36	-3.23
789.67	9.04
789.98	22.28
790.29	30.02
790.59	18.72
790.90	13.56
791.21	2.91
791.52	10.33
791.83	11.94
792.14	13.24
792.45	16.46
792.75	10.65
793.06	1.29
793.37	20.34
793.68	-7.10
793.99	-19.37
794.30	-27.12
794.60	-22.92
794.91	-9.36
795.22	8.39
795.53	-9.04
795.84	13.88
796.15	14.85
796.45	13.24
796.76	16.14
797.07	-2.58
797.38	-15.17
797.68	-22.28
797.99	-29.05
798.30	-16.79
798.61	-16.14
798.91	-35.19
799.22	-27.12
799.53	-16.14
799.84	0.97
800.14	11.30
800.45	15.50
800.76	32.61
801.07	41.97
801.37	32.28
801.68	18.40
801.99	5.81
802.29	-1.61
802.60	-19.05
802.91	-33.25
803.22	-41.65
803.52	-25.50
803.83	-17.43
804.14	-11.94
804.44	-15.82
804.75	-11.62
805.06	-20.34
805.36	-23.24
805.67	-34.54
805.97	-30.99
806.28	-17.76
806.59	-7.10
806.89	1.29
807.20	-4.52
807.51	12.59
807.81	9.68
808.12	0.32
808.42	-2.91
808.73	-2.26
809.04	-7.10
809.34	-1.29
809.65	-3.55
809.95	-6.46
810.26	-5.17
810.56	-18.40
810.87	-28.73
811.18	-22.28
811.48	-15.17
811.79	-23.89
812.09	-12.27
812.40	-9.68
812.70	-5.49
813.01	-4.52
813.31	-13.88
813.62	-10.01
813.92	-10.01
814.23	-18.72
814.53	-29.38
814.84	-10.98
815.14	-13.24
815.45	-12.91
815.75	-19.05
816.06	1.61
816.36	18.72
816.67	26.47
816.97	17.76
817.28	24.86
817.58	34.87
817.89	39.71
818.19	21.63
818.49	-2.58
818.80	7.75
819.10	6.78
819.41	18.72
819.71	18.08
820.01	13.24
820.32	22.60
820.62	31.31
820.93	19.37
821.23	22.28
821.53	10.98
821.84	4.52
822.14	3.55
822.45	-8.72
822.75	-9.04
823.05	-11.30
823.36	1.94
823.66	-6.46
823.96	-5.49
824.27	7.10
824.57	13.56
824.87	17.43
825.18	30.02
825.48	20.02
825.78	42.29
826.09	46.17
826.39	54.56
826.69	52.30
827.00	59.08
827.30	51.01
827.60	49.72
827.90	38.74
828.21	34.22
828.51	23.57
828.81	16.46
829.11	9.36
829.42	0.97
829.72	0.65
830.02	-16.79
830.32	-19.05
830.63	-28.41
830.93	-31.31
831.23	-29.38
831.53	-12.59
831.84	-22.28
832.14	12.27
832.44	15.17
832.74	7.43
833.04	21.63
833.35	17.76
833.65	13.88
833.95	15.82
834.25	-8.72
834.55	4.84
834.85	26.15
835.16	28.09
835.46	34.22
835.76	36.48
836.06	41.65
836.36	50.04
836.66	33.57
836.96	17.76
837.26	19.05
837.57	22.28
837.87	8.07
838.17	2.58
838.47	-4.20
838.77	7.10
839.07	15.50
839.37	19.37
839.67	12.59
839.97	2.91
840.27	7.75
840.57	11.94
840.88	5.17
841.18	10.01
841.48	0.97
841.78	-3.87
842.08	15.17
842.38	4.52
842.68	7.75
842.98	-4.52
843.28	-19.05
843.58	-21.31
843.88	-11.30
844.18	-12.59
844.48	8.39
844.78	7.75
845.08	42.29
845.38	52.94
845.68	44.55
845.98	38.74
846.28	28.41
846.58	13.88
846.88	-3.23
847.18	-27.44
847.48	-33.57
847.78	-27.44
848.07	-32.28
848.37	-25.18
848.67	-24.54
848.97	-0.97
849.27	0.65
849.57	9.36
849.87	11.94
850.17	17.43
850.47	19.37
850.77	15.17
851.07	-15.50
851.36	-23.89
851.66	-38.74
851.96	-43.26
852.26	-51.98
852.56	-45.52
852.86	-37.45
853.16	-21.95
853.45	-23.57
853.75	-20.02
854.05	-18.08
854.35	-18.08
854.65	-18.40
854.95	-37.45
855.24	-30.35
855.54	-9.36
855.84	2.26
856.14	-1.94
856.44	25.50
856.73	48.10
857.03	61.98
857.33	57.46
857.63	40.03
857.93	35.83
858.22	44.23
858.52	16.14
858.82	-8.39
859.12	0.65
859.41	13.88
859.71	29.05
860.01	17.76
860.30	17.11
860.60	14.20
860.90	4.20
861.20	-1.29
861.49	-17.43
861.79	-15.82
862.09	0.65
862.38	-5.81
862.68	9.36
862.98	28.09
863.27	24.54
863.57	31.96
863.87	17.11
864.16	13.88
864.46	28.73
864.76	32.28
865.05	19.05
865.35	11.30
865.65	4.52
865.94	19.05
866.24	19.69
866.54	13.24
866.83	8.72
867.13	23.24
867.42	27.44
867.72	27.12
868.02	3.55
868.31	-5.81
868.61	-14.20
868.90	-18.08
869.20	-15.82
869.49	-25.50
869.79	-17.76
870.08	-3.87
870.38	1.94
870.68	11.62
870.97	18.08
871.27	2.91
871.56	10.01
871.86	6.46
872.15	10.65
872.45	3.23
872.74	7.75
873.04	-0.65
873.33	1.94
873.63	-3.55
873.92	-14.85
874.22	-31.31
874.51	-2.58
874.81	-1.94
875.10	1.61
875.40	0.00
875.69	19.37
875.98	27.44
876.28	49.39
876.57	28.09
876.87	11.62
877.16	13.56
877.46	27.76
877.75	29.38
878.04	39.06
878.34	33.90
878.63	39.39
878.93	45.52
879.22	41.32
879.51	24.54
879.81	16.79
880.10	4.84
880.40	-14.85
880.69	-30.02
880.98	-42.94
881.28	-45.20
881.57	-30.67
881.86	-19.05
882.16	-11.94
882.45	4.84
882.74	22.28
883.04	39.71
883.33	43.58
883.62	27.44
883.92	18.08
884.21	-9.04
884.50	-33.90
>>>>>End Processed Spectral Data<<<<<
