SpectraSuite Data File
++++++++++++++++++++++++++++++++++++
Date: Fri Feb 20 12:14:34 EST 2015
User: Administrator
Dark Spectrum Present: Yes
Reference Spectrum Present: No
Number of Sampled Component Spectra: 1
Spectrometers: SB2+H01071
Integration Time (usec): 5000000 (SB2+H01071)
Spectra Averaged: 1 (SB2+H01071)
Boxcar Smoothing: 3 (SB2+H01071)
Correct for Electrical Dark: No (SB2+H01071)
Strobe/Lamp Enabled: Yes (SB2+H01071)
Correct for Detector Non-linearity: No (SB2+H01071)
Correct for Stray Light: No (SB2+H01071)
Number of Pixels in Processed Spectrum: 2048
>>>>>Begin Processed Spectral Data<<<<<
191.06	-54.24
191.43	-54.24
191.81	-54.24
192.19	-32.28
192.56	-31.64
192.94	-19.37
193.31	-29.38
193.69	-26.47
194.07	-16.79
194.44	-18.08
194.82	-19.69
195.19	-13.24
195.57	-20.98
195.95	-1.94
196.32	1.29
196.70	-11.30
197.07	-2.58
197.45	-27.12
197.83	-16.46
198.20	-10.33
198.58	-19.05
198.95	-27.76
199.33	-29.05
199.70	-39.39
200.08	-23.24
200.46	-18.72
200.83	-23.24
201.21	-18.72
201.58	-6.46
201.96	15.82
202.33	33.57
202.71	46.49
203.09	32.93
203.46	30.35
203.84	29.70
204.21	25.83
204.59	16.14
204.96	19.37
205.34	9.68
205.71	14.20
206.09	27.12
206.46	38.74
206.84	40.35
207.21	31.96
207.59	25.18
207.96	18.72
208.34	0.32
208.71	-13.24
209.09	-22.28
209.46	-41.65
209.84	-22.92
210.21	-30.35
210.59	4.84
210.96	16.46
211.34	9.68
211.71	-4.20
212.09	20.34
212.46	15.50
212.84	13.24
213.21	-41.32
213.59	-27.76
213.96	-2.91
214.34	0.65
214.71	-5.81
215.08	1.94
215.46	11.30
215.83	37.77
216.21	23.57
216.58	2.26
216.96	13.88
217.33	5.49
217.70	-15.17
218.08	-30.67
218.45	-39.71
218.83	-51.65
219.20	-39.39
219.58	-53.27
219.95	-51.65
220.32	-38.74
220.70	-33.90
221.07	-35.51
221.45	-26.47
221.82	-33.25
222.19	-21.63
222.57	-19.37
222.94	-18.08
223.32	-28.09
223.69	-7.43
224.06	-6.46
224.44	-2.58
224.81	6.13
225.18	-0.97
225.56	5.49
225.93	15.50
226.31	3.87
226.68	6.46
227.05	3.87
227.43	-10.98
227.80	2.26
228.17	-10.65
228.55	-2.91
228.92	-8.39
229.29	-23.24
229.67	-17.76
230.04	-17.11
230.41	-29.70
230.79	-26.80
231.16	-27.12
231.53	-30.35
231.91	-19.05
232.28	-26.47
232.65	-16.79
233.03	-3.23
233.40	19.37
233.77	22.28
234.15	39.39
234.52	43.26
234.89	49.72
235.26	47.13
235.64	37.45
236.01	2.91
236.38	-2.26
236.76	-3.23
237.13	-30.99
237.50	-37.77
237.87	-44.55
238.25	-34.54
238.62	-21.63
238.99	-19.69
239.36	-21.31
239.74	10.65
240.11	12.91
240.48	12.59
240.85	9.68
241.23	10.33
241.60	-0.65
241.97	-13.56
242.34	-35.51
242.72	-37.45
243.09	-18.40
243.46	-21.95
243.83	-29.05
244.20	-28.41
244.58	-17.11
244.95	-3.87
245.32	5.49
245.69	-15.82
246.07	-9.36
246.44	-9.68
246.81	9.04
247.18	3.23
247.55	8.07
247.92	1.94
248.30	11.30
248.67	1.61
249.04	-3.55
249.41	-5.81
249.78	-11.62
250.16	-4.52
250.53	-1.94
250.90	-2.26
251.27	2.91
251.64	9.36
252.01	11.30
252.39	24.86
252.76	16.46
253.13	3.55
253.50	-18.40
253.87	-27.12
254.24	-32.93
254.61	-53.91
254.98	-68.12
255.36	-65.86
255.73	-53.59
256.10	-43.58
256.47	-42.29
256.84	-28.09
257.21	-22.28
257.58	-21.95
257.95	-27.76
258.33	-23.24
258.70	-20.98
259.07	-26.47
259.44	-28.73
259.81	-12.59
260.18	-10.98
260.55	-9.04
260.92	-22.60
261.29	-24.54
261.66	-11.30
262.03	-18.72
262.40	-33.90
262.77	-21.31
263.15	-15.82
263.52	-13.88
263.89	-15.17
264.26	-20.34
264.63	-18.08
265.00	-16.46
265.37	-6.46
265.74	-17.76
266.11	-8.39
266.48	10.01
266.85	12.91
267.22	10.98
267.59	4.20
267.96	-4.52
268.33	-0.00
268.70	-5.49
269.07	-7.10
269.44	3.87
269.81	2.58
270.18	28.41
270.55	12.91
270.92	9.36
271.29	20.02
271.66	17.11
272.03	22.28
272.40	30.35
272.77	-0.32
273.14	3.87
273.51	20.34
273.88	-9.36
274.25	-12.27
274.62	-35.19
274.99	-46.81
275.36	-29.70
275.73	-25.50
276.10	-26.80
276.47	1.61
276.84	9.68
277.21	23.57
277.58	19.05
277.94	30.67
278.31	31.96
278.68	29.38
279.05	14.85
279.42	4.84
279.79	2.26
280.16	4.20
280.53	-9.04
280.90	-28.09
281.27	-46.49
281.64	-23.57
282.01	-24.54
282.37	-28.41
282.74	-15.50
283.11	-22.60
283.48	-12.91
283.85	-2.91
284.22	-11.62
284.59	-7.75
284.96	-13.56
285.33	-1.61
285.69	0.65
286.06	4.84
286.43	14.20
286.80	24.86
287.17	37.45
287.54	52.30
287.91	29.38
288.27	47.13
288.64	51.33
289.01	51.01
289.38	34.54
289.75	27.12
290.12	15.82
290.48	28.73
290.85	19.69
291.22	-4.84
291.59	-13.24
291.96	-16.46
292.33	-28.09
292.69	-22.28
293.06	-14.85
293.43	-12.27
293.80	2.58
294.17	6.46
294.53	0.65
294.90	-7.43
295.27	-1.29
295.64	8.07
296.01	2.91
296.37	16.46
296.74	23.57
297.11	25.83
297.48	33.57
297.84	19.05
298.21	5.81
298.58	-7.10
298.95	-28.09
299.31	-41.65
299.68	-33.57
300.05	-30.67
300.42	-10.98
300.78	-27.12
301.15	-8.72
301.52	2.26
301.89	27.44
302.25	31.31
302.62	30.99
302.99	8.07
303.35	4.52
303.72	-1.29
304.09	-13.24
304.46	-29.05
304.82	-35.83
305.19	-25.18
305.56	-30.67
305.92	-20.66
306.29	-1.61
306.66	14.85
307.02	10.65
307.39	5.17
307.76	14.20
308.12	29.38
308.49	9.04
308.86	-4.20
309.23	2.58
309.59	-0.32
309.96	-2.58
310.32	-7.10
310.69	-16.79
311.06	-1.61
311.42	-20.02
311.79	-32.28
312.16	-34.22
312.52	-28.09
312.89	-36.16
313.26	-33.25
313.62	-26.80
313.99	-9.36
314.35	-10.65
314.72	13.88
315.09	19.37
315.45	30.99
315.82	31.96
316.19	35.19
316.55	27.12
316.92	31.64
317.28	8.39
317.65	-3.23
318.02	-23.57
318.38	-24.86
318.75	-44.87
319.11	-54.88
319.48	-53.59
319.84	-46.49
320.21	-60.05
320.58	-51.65
320.94	-28.41
321.31	-10.01
321.67	8.72
322.04	14.20
322.40	16.79
322.77	45.84
323.13	43.58
323.50	23.57
323.86	14.20
324.23	24.54
324.60	20.98
324.96	15.82
325.33	-14.53
325.69	-11.62
326.06	-10.33
326.42	-12.59
326.79	-33.90
327.15	-46.81
327.52	-51.98
327.88	-24.21
328.25	-23.24
328.61	-17.43
328.98	-0.65
329.34	-1.29
329.71	3.55
330.07	8.39
330.44	-2.91
330.80	-4.84
331.16	-15.50
331.53	-27.44
331.89	-18.40
332.26	-5.81
332.62	-4.52
332.99	14.20
333.35	22.60
333.72	29.05
334.08	41.97
334.45	43.91
334.81	38.09
335.17	43.26
335.54	36.48
335.90	36.48
336.27	31.96
336.63	18.40
337.00	14.85
337.36	18.40
337.72	16.14
338.09	6.13
338.45	1.29
338.82	3.87
339.18	4.52
339.54	10.01
339.91	9.68
340.27	9.68
340.63	15.50
341.00	17.76
341.36	34.54
341.73	22.28
342.09	24.86
342.45	27.44
342.82	25.50
343.18	41.00
343.54	51.98
343.91	43.26
344.27	74.25
344.63	67.47
345.00	64.57
345.36	63.28
345.72	38.74
346.09	20.34
346.45	24.21
346.81	10.65
347.18	15.50
347.54	21.63
347.90	21.63
348.27	19.37
348.63	-1.29
348.99	-24.21
349.36	-28.41
349.72	-30.67
350.08	-44.23
350.45	-61.34
350.81	-47.78
351.17	-14.20
351.53	-7.43
351.90	-2.58
352.26	-5.49
352.62	-4.84
352.98	8.72
353.35	3.23
353.71	-6.46
354.07	3.87
354.44	-10.33
354.80	-5.81
355.16	-0.97
355.52	-12.59
355.88	-12.91
356.25	-16.79
356.61	-20.66
356.97	-27.76
357.33	-30.35
357.70	-20.98
358.06	-11.30
358.42	-18.72
358.78	-23.57
359.15	-20.98
359.51	-10.65
359.87	-21.63
360.23	-27.76
360.59	-24.86
360.95	-16.79
361.32	-9.36
361.68	-17.11
362.04	-20.98
362.40	-16.14
362.76	-23.89
363.13	-24.54
363.49	-21.31
363.85	-3.55
364.21	-11.94
364.57	3.55
364.93	13.88
365.30	44.87
365.66	49.72
366.02	46.49
366.38	27.12
366.74	53.91
367.10	56.17
367.46	47.46
367.83	27.12
368.19	23.89
368.55	20.66
368.91	10.01
369.27	-4.20
369.63	-3.23
369.99	-12.91
370.35	-18.08
370.71	-15.82
371.08	0.00
371.44	12.91
371.80	13.24
372.16	13.24
372.52	20.66
372.88	29.70
373.24	27.76
373.60	15.82
373.96	13.56
374.32	27.12
374.68	25.50
375.04	31.64
375.40	17.43
375.76	20.34
376.13	20.34
376.49	25.50
376.85	15.50
377.21	11.94
377.57	4.20
377.93	7.75
378.29	4.84
378.65	11.30
379.01	4.84
379.37	-7.10
379.73	-7.10
380.09	-3.55
380.45	-10.98
380.81	-17.11
381.17	-20.02
381.53	-19.69
381.89	-7.10
382.25	-3.87
382.61	1.94
382.97	9.04
383.33	8.39
383.69	20.98
384.05	25.83
384.41	28.73
384.77	20.98
385.13	12.91
385.49	4.52
385.85	11.30
386.20	-0.97
386.56	-29.38
386.92	-41.65
387.28	-58.11
387.64	-58.11
388.00	-55.20
388.36	-58.76
388.72	-49.39
389.08	-36.80
389.44	-41.97
389.80	-24.21
390.16	-23.24
390.52	-12.27
390.88	-14.53
391.23	-26.15
391.59	-6.13
391.95	3.55
392.31	-2.91
392.67	-16.14
393.03	7.43
393.39	2.91
393.75	11.94
394.11	10.65
394.46	20.02
394.82	33.25
395.18	37.13
395.54	7.75
395.90	14.85
396.26	4.20
396.62	-6.46
396.97	-13.24
397.33	-18.72
397.69	-20.98
398.05	-32.61
398.41	-34.54
398.77	-42.94
399.12	-28.73
399.48	-35.83
399.84	-34.54
400.20	-28.09
400.56	-13.24
400.91	2.58
401.27	-2.58
401.63	-15.82
401.99	-11.62
402.35	-13.88
402.70	-19.05
403.06	-17.76
403.42	-40.03
403.78	-20.02
404.14	-16.14
404.49	-15.50
404.85	-17.43
405.21	-10.98
405.57	-17.76
405.92	-2.91
406.28	-11.62
406.64	-27.76
407.00	-17.43
407.35	-16.46
407.71	-12.59
408.07	-15.82
408.43	-28.41
408.78	-19.05
409.14	4.52
409.50	1.29
409.85	1.29
410.21	11.94
410.57	27.12
410.93	43.58
411.28	41.97
411.64	39.39
412.00	26.80
412.35	37.77
412.71	31.31
413.07	20.66
413.42	4.52
413.78	0.97
414.14	-3.87
414.49	3.55
414.85	16.79
415.21	4.52
415.56	13.88
415.92	35.51
416.28	38.09
416.63	45.84
416.99	40.03
417.35	18.40
417.70	19.05
418.06	15.17
418.42	20.34
418.77	30.35
419.13	31.31
419.48	47.78
419.84	39.71
420.20	51.98
420.55	47.78
420.91	32.28
421.27	30.02
421.62	44.23
421.98	37.45
422.33	52.62
422.69	51.98
423.05	57.79
423.40	46.17
423.76	40.03
424.11	20.98
424.47	23.57
424.82	25.18
425.18	11.62
425.54	15.50
425.89	18.08
426.25	4.20
426.60	-9.36
426.96	-11.30
427.31	-18.08
427.67	-7.43
428.02	-16.46
428.38	-7.10
428.73	-6.13
429.09	-4.52
429.44	-12.27
429.80	-4.84
430.15	0.00
430.51	12.91
430.86	-3.55
431.22	-1.94
431.57	-2.58
431.93	-5.49
432.28	-7.75
432.64	-25.83
432.99	-28.09
433.35	-7.10
433.70	-10.01
434.06	-3.55
434.41	-5.17
434.77	-16.14
435.12	6.13
435.48	-20.02
435.83	-38.74
436.19	-17.11
436.54	-13.88
436.89	-13.56
437.25	-10.33
437.60	-27.12
437.96	-23.24
438.31	3.55
438.67	-12.27
439.02	-9.36
439.37	-13.56
439.73	-13.56
440.08	-4.52
440.44	-3.23
440.79	-16.79
441.15	-14.53
441.50	-13.88
441.85	-10.65
442.21	0.65
442.56	4.20
442.91	8.07
443.27	2.26
443.62	13.24
443.98	14.53
444.33	12.59
444.68	-3.55
445.04	-7.10
445.39	9.04
445.74	10.33
446.10	-0.97
446.45	-13.24
446.80	12.59
447.16	20.98
447.51	19.37
447.86	12.27
448.22	30.99
448.57	29.05
448.92	24.54
449.28	-1.94
449.63	-14.20
449.98	-16.46
450.34	-12.59
450.69	-34.22
451.04	-33.57
451.40	-11.94
451.75	-5.17
452.10	13.24
452.45	4.84
452.81	-0.32
453.16	0.97
453.51	3.55
453.86	-7.43
454.22	-14.53
454.57	-32.61
454.92	-24.86
455.27	-21.31
455.63	-16.14
455.98	-14.85
456.33	-19.37
456.68	-9.04
457.04	4.20
457.39	10.01
457.74	12.59
458.09	0.97
458.45	9.68
458.80	-1.94
459.15	-7.10
459.50	-19.69
459.85	-33.57
460.21	-32.61
460.56	-31.31
460.91	-38.09
461.26	-26.80
461.61	-20.02
461.97	-7.75
462.32	6.46
462.67	-10.33
463.02	12.91
463.37	17.76
463.72	31.64
464.08	26.47
464.43	12.91
464.78	8.07
465.13	21.95
465.48	24.21
465.83	17.43
466.18	3.87
466.54	7.10
466.89	11.30
467.24	20.66
467.59	16.46
467.94	5.17
468.29	9.04
468.64	7.43
468.99	17.43
469.34	21.31
469.70	6.46
470.05	0.65
470.40	-7.75
470.75	-24.86
471.10	-23.89
471.45	-47.78
471.80	-51.65
472.15	-47.13
472.50	-49.39
472.85	-48.42
473.20	-26.80
473.55	-17.43
473.90	-15.50
474.25	-23.24
474.61	-14.53
474.96	-10.01
475.31	-8.39
475.66	-19.69
476.01	-19.05
476.36	-2.58
476.71	14.85
477.06	9.68
477.41	19.05
477.76	23.24
478.11	30.67
478.46	24.86
478.81	15.17
479.16	8.07
479.51	1.94
479.86	8.72
480.21	19.37
480.56	18.72
480.91	13.24
481.26	15.17
481.61	32.28
481.96	42.61
482.31	24.54
482.66	-3.23
483.00	-4.52
483.35	7.10
483.70	4.20
484.05	-9.36
484.40	-24.21
484.75	-19.69
485.10	2.26
485.45	2.58
485.80	-8.07
486.15	6.78
486.50	5.49
486.85	7.43
487.20	0.32
487.55	-3.55
487.89	-10.65
488.24	-3.55
488.59	-12.91
488.94	-9.68
489.29	-11.62
489.64	-8.07
489.99	-13.88
490.34	-1.61
490.68	-3.87
491.03	-8.72
491.38	2.58
491.73	22.92
492.08	29.05
492.43	25.83
492.78	9.68
493.12	15.17
493.47	13.56
493.82	-8.72
494.17	-20.98
494.52	-20.34
494.87	-23.89
495.21	-24.21
495.56	-16.14
495.91	1.94
496.26	20.34
496.61	30.02
496.95	27.12
497.30	42.29
497.65	49.72
498.00	27.12
498.35	19.69
498.69	9.36
499.04	-8.07
499.39	1.61
499.74	-6.78
500.08	-15.17
500.43	-3.87
500.78	-24.86
501.13	-30.67
501.48	-27.44
501.82	-34.22
502.17	-36.16
502.52	-34.54
502.86	-47.46
503.21	-33.25
503.56	-29.70
503.91	-19.37
504.25	-14.53
504.60	-6.78
504.95	-11.94
505.30	0.65
505.64	5.81
505.99	4.20
506.34	1.29
506.68	-2.58
507.03	-13.88
507.38	-0.32
507.72	-11.62
508.07	-23.89
508.42	-7.10
508.76	-21.31
509.11	-18.40
509.46	8.72
509.80	-1.29
510.15	12.91
510.50	16.79
510.84	-4.20
511.19	7.43
511.54	-1.29
511.88	-18.08
512.23	10.01
512.57	12.91
512.92	14.85
513.27	25.83
513.61	30.35
513.96	22.92
514.31	26.80
514.65	17.76
515.00	1.94
515.34	17.76
515.69	23.89
516.03	34.87
516.38	32.61
516.73	14.85
517.07	-14.53
517.42	-8.72
517.76	-25.50
518.11	-27.76
518.45	-47.13
518.80	-35.83
519.15	-20.34
519.49	5.49
519.84	16.79
520.18	20.34
520.53	13.24
520.87	15.17
521.22	2.91
521.56	10.65
521.91	-3.55
522.25	-12.59
522.60	-8.07
522.94	-0.32
523.29	6.13
523.63	21.95
523.98	-0.00
524.32	8.72
524.67	5.81
525.01	0.32
525.36	-10.33
525.70	-17.11
526.05	-28.41
526.39	-28.41
526.74	-19.37
527.08	-10.98
527.43	-26.47
527.77	-29.70
528.12	-29.70
528.46	-21.95
528.80	-15.82
529.15	-24.86
529.49	-26.47
529.84	-14.85
530.18	-12.27
530.53	-11.94
530.87	7.43
531.21	3.23
531.56	9.04
531.90	9.68
532.25	11.62
532.59	19.69
532.93	16.79
533.28	0.97
533.62	10.98
533.97	3.23
534.31	0.32
534.65	3.87
535.00	20.02
535.34	15.50
535.68	23.57
536.03	17.43
536.37	8.72
536.71	6.13
537.06	12.91
537.40	-8.39
537.74	-1.94
538.09	-30.35
538.43	-33.90
538.77	-24.21
539.12	-26.80
539.46	-37.45
539.80	-35.83
540.15	-45.84
540.49	-20.98
540.83	-10.33
541.18	-10.33
541.52	0.65
541.86	7.43
542.20	12.91
542.55	18.72
542.89	22.92
543.23	26.47
543.58	26.15
543.92	15.17
544.26	13.24
544.60	9.36
544.95	17.43
545.29	-8.07
545.63	-19.05
545.97	-25.83
546.32	-23.89
546.66	-21.95
547.00	-28.09
547.34	-38.09
547.68	-18.08
548.03	-18.08
548.37	-17.43
548.71	-6.78
549.05	-25.50
549.39	-21.63
549.74	-24.21
550.08	-35.83
550.42	-30.02
550.76	-24.86
551.10	-42.94
551.45	-23.89
551.79	-11.62
552.13	-13.56
552.47	-7.43
552.81	-11.30
553.15	-3.23
553.50	8.39
553.84	9.04
554.18	2.91
554.52	25.83
554.86	28.09
555.20	37.13
555.54	23.24
555.88	22.28
556.23	5.49
556.57	0.65
556.91	-23.89
557.25	-19.37
557.59	-39.39
557.93	-27.76
558.27	-15.82
558.61	-2.58
558.95	5.17
559.29	26.80
559.64	24.54
559.98	12.59
560.32	5.81
560.66	-15.82
561.00	2.91
561.34	-24.54
561.68	-33.25
562.02	-32.61
562.36	8.72
562.70	5.81
563.04	18.72
563.38	-1.94
563.72	22.60
564.06	29.70
564.40	23.24
564.74	10.98
565.08	14.53
565.42	0.00
565.76	7.10
566.10	14.53
566.44	4.20
566.78	3.23
567.12	3.55
567.46	14.85
567.80	30.99
568.14	34.87
568.48	36.16
568.82	39.71
569.16	27.12
569.50	29.70
569.84	18.08
570.18	33.25
570.52	29.70
570.86	14.53
571.20	27.12
571.54	32.93
571.88	22.92
572.22	18.40
572.55	-3.23
572.89	-4.20
573.23	19.05
573.57	-0.65
573.91	18.40
574.25	13.88
574.59	10.65
574.93	7.75
575.27	6.78
575.61	-12.91
575.94	0.65
576.28	-12.59
576.62	-0.32
576.96	0.32
577.30	11.62
577.64	12.91
577.98	8.39
578.32	18.08
578.65	24.21
578.99	19.05
579.33	27.12
579.67	23.57
580.01	26.15
580.35	26.47
580.68	14.85
581.02	12.91
581.36	18.72
581.70	4.20
582.04	-1.29
582.37	-21.31
582.71	-27.76
583.05	-23.24
583.39	-35.83
583.73	-51.33
584.06	-41.97
584.40	-41.97
584.74	-30.99
585.08	-41.65
585.41	-44.55
585.75	-27.44
586.09	-21.31
586.43	-31.64
586.76	-41.00
587.10	-35.51
587.44	-15.82
587.78	-26.80
588.11	-35.83
588.45	-43.91
588.79	-43.91
589.13	-29.38
589.46	-41.97
589.80	-29.70
590.14	-20.02
590.47	-32.93
590.81	-26.15
591.15	-12.91
591.48	-20.66
591.82	-8.39
592.16	-16.14
592.50	-24.54
592.83	-20.98
593.17	-20.98
593.51	-28.73
593.84	-24.54
594.18	-27.76
594.51	-25.50
594.85	-10.98
595.19	5.49
595.52	23.89
595.86	20.66
596.20	32.28
596.53	36.48
596.87	32.93
597.21	23.57
597.54	37.45
597.88	17.76
598.21	41.00
598.55	40.03
598.89	30.99
599.22	19.37
599.56	19.05
599.89	-1.94
600.23	10.65
600.57	12.91
600.90	5.81
601.24	13.24
601.57	15.50
601.91	11.94
602.24	26.47
602.58	23.24
602.91	3.87
603.25	2.26
603.58	8.72
603.92	15.82
604.26	22.92
604.59	8.07
604.93	0.65
605.26	8.72
605.60	17.11
605.93	8.72
606.27	8.39
606.60	8.39
606.94	32.61
607.27	26.80
607.61	26.47
607.94	13.24
608.28	4.84
608.61	7.75
608.95	16.79
609.28	11.30
609.61	25.83
609.95	37.13
610.28	55.20
610.62	57.14
610.95	61.98
611.29	57.14
611.62	31.31
611.96	29.05
612.29	27.44
612.62	17.43
612.96	10.98
613.29	10.01
613.63	3.87
613.96	18.40
614.29	20.02
614.63	14.85
614.96	3.55
615.30	10.98
615.63	4.52
615.96	1.29
616.30	4.84
616.63	7.43
616.97	22.28
617.30	35.19
617.63	48.75
617.97	49.72
618.30	60.05
618.63	46.49
618.97	38.09
619.30	17.11
619.63	0.97
619.97	-5.17
620.30	-8.39
620.63	-6.13
620.97	-5.17
621.30	-10.01
621.63	-13.24
621.97	1.29
622.30	10.01
622.63	17.43
622.96	6.46
623.30	8.39
623.63	20.66
623.96	24.54
624.30	29.05
624.63	20.98
624.96	5.49
625.29	-10.98
625.63	-9.68
625.96	-10.65
626.29	-14.53
626.62	-29.05
626.96	-46.81
627.29	-38.42
627.62	-28.73
627.95	-34.87
628.28	-41.65
628.62	-33.90
628.95	-39.71
629.28	-27.12
629.61	-3.55
629.95	6.46
630.28	20.66
630.61	41.97
630.94	39.06
631.27	43.58
631.60	51.65
631.94	30.35
632.27	38.74
632.60	35.51
632.93	10.98
633.26	7.43
633.59	15.50
633.93	10.33
634.26	4.20
634.59	-13.24
634.92	-19.05
635.25	-10.98
635.58	-24.21
635.91	-30.99
636.24	-27.12
636.58	-14.53
636.91	-10.33
637.24	-12.91
637.57	-23.57
637.90	-10.65
638.23	-0.97
638.56	-1.94
638.89	-18.40
639.22	-15.50
639.55	-20.66
639.88	-14.53
640.22	-10.65
640.55	-19.37
640.88	-11.30
641.21	-18.08
641.54	-19.37
641.87	-9.68
642.20	-4.84
642.53	-21.63
642.86	-12.59
643.19	-12.27
643.52	4.20
643.85	-1.94
644.18	-3.55
644.51	-24.86
644.84	-9.68
645.17	-18.08
645.50	-48.75
645.83	-46.49
646.16	-20.98
646.49	-19.69
646.82	4.52
647.15	3.87
647.48	5.81
647.81	17.76
648.14	13.56
648.47	-7.43
648.80	-0.97
649.13	-9.68
649.46	-10.01
649.79	-6.46
650.11	17.43
650.44	23.24
650.77	9.36
651.10	-4.84
651.43	-3.55
651.76	-17.76
652.09	-27.12
652.42	-41.32
652.75	-47.46
653.08	-19.05
653.41	-17.43
653.73	-11.30
654.06	-0.65
654.39	1.94
654.72	0.97
655.05	6.13
655.38	-8.72
655.71	-6.78
656.04	0.97
656.36	8.07
656.69	4.84
657.02	-2.26
657.35	-21.95
657.68	-23.24
658.01	-15.82
658.33	-11.62
658.66	-16.14
658.99	-3.23
659.32	-4.52
659.65	20.34
659.97	18.40
660.30	23.57
660.63	3.87
660.96	9.36
661.29	14.85
661.61	19.37
661.94	-0.32
662.27	-2.91
662.60	-14.20
662.92	-12.27
663.25	-18.08
663.58	-23.57
663.91	-32.93
664.23	-21.31
664.56	-4.84
664.89	-0.00
665.22	1.94
665.54	12.59
665.87	-0.32
666.20	6.46
666.53	-6.46
666.85	-26.15
667.18	-31.96
667.51	-26.47
667.83	-47.13
668.16	-38.09
668.49	-39.39
668.81	-32.93
669.14	-23.57
669.47	-19.69
669.79	-28.73
670.12	-20.34
670.45	-30.02
670.77	-26.80
671.10	-24.54
671.43	-20.66
671.75	-30.02
672.08	-36.80
672.41	-46.17
672.73	-39.06
673.06	-40.35
673.39	-33.25
673.71	-38.42
674.04	-22.92
674.36	-8.72
674.69	3.23
675.02	0.00
675.34	-3.87
675.67	1.94
675.99	10.33
676.32	0.97
676.64	-6.78
676.97	-9.36
677.30	3.23
677.62	11.62
677.95	-2.58
678.27	-2.26
678.60	8.72
678.92	8.39
679.25	16.14
679.57	7.10
679.90	-3.55
680.22	14.20
680.55	17.76
680.88	8.07
681.20	3.55
681.53	-18.08
681.85	-15.17
682.18	-6.13
682.50	-23.24
682.83	-25.50
683.15	-17.11
683.47	-10.98
683.80	-8.39
684.12	-17.76
684.45	-25.18
684.77	-11.94
685.10	-26.80
685.42	-37.13
685.75	-33.57
686.07	-30.99
686.40	-30.99
686.72	-30.35
687.04	-43.91
687.37	-45.20
687.69	-9.36
688.02	-17.43
688.34	0.97
688.67	-13.88
688.99	-15.82
689.31	-18.40
689.64	0.97
689.96	-17.11
690.28	-4.84
690.61	-16.14
690.93	19.05
691.26	39.39
691.58	39.39
691.90	19.69
692.23	-7.10
692.55	-15.82
692.87	1.61
693.20	-15.50
693.52	-27.44
693.84	-25.83
694.17	-16.14
694.49	-33.57
694.81	-33.25
695.14	-42.94
695.46	-32.61
695.78	-30.67
696.11	-37.77
696.43	-26.15
696.75	1.29
697.08	-3.55
697.40	-5.49
697.72	-5.49
698.04	-4.52
698.37	18.08
698.69	6.13
699.01	7.75
699.33	23.57
699.66	24.21
699.98	15.17
700.30	17.11
700.62	8.72
700.95	-1.94
701.27	5.81
701.59	-0.97
701.91	-6.13
702.24	-0.65
702.56	5.17
702.88	5.49
703.20	23.57
703.52	13.88
703.85	-1.94
704.17	-0.32
704.49	-9.68
704.81	-18.40
705.13	-12.91
705.45	-15.82
705.78	-16.46
706.10	-10.01
706.42	-19.37
706.74	-3.87
707.06	1.94
707.38	4.52
707.71	4.52
708.03	5.49
708.35	5.17
708.67	16.46
708.99	-1.61
709.31	-5.49
709.63	-14.53
709.95	-27.44
710.27	-25.50
710.60	-10.01
710.92	-20.98
711.24	-9.68
711.56	-11.62
711.88	-13.24
712.20	-12.59
712.52	-3.23
712.84	-7.43
713.16	8.07
713.48	6.78
713.80	-8.72
714.12	-14.85
714.44	0.65
714.76	2.91
715.08	-2.26
715.40	-4.52
715.72	-6.78
716.04	-9.36
716.36	0.00
716.68	5.81
717.00	-5.17
717.32	-10.33
717.64	-4.84
717.96	-7.75
718.28	14.20
718.60	21.63
718.92	14.85
719.24	8.07
719.56	6.78
719.88	-8.39
720.20	-16.46
720.52	-22.60
720.84	-43.58
721.16	-42.29
721.48	-20.98
721.80	-9.04
722.12	8.72
722.44	7.43
722.76	12.59
723.08	5.17
723.40	-4.20
723.72	-18.40
724.03	-15.50
724.35	-19.05
724.67	-1.61
724.99	-10.65
725.31	1.94
725.63	6.46
725.95	-4.84
726.27	-8.39
726.58	-11.94
726.90	-8.72
727.22	-7.10
727.54	-3.55
727.86	-4.52
728.18	16.14
728.50	4.52
728.81	6.46
729.13	4.20
729.45	6.78
729.77	17.43
730.09	30.67
730.40	25.18
730.72	48.10
731.04	23.24
731.36	34.87
731.68	41.65
731.99	20.34
732.31	-8.39
732.63	-20.66
732.95	-37.45
733.27	-16.79
733.58	-24.54
733.90	-38.74
734.22	-22.92
734.54	10.33
734.85	10.01
735.17	23.89
735.49	15.50
735.80	6.46
736.12	18.40
736.44	-4.20
736.76	-25.83
737.07	-22.60
737.39	-28.73
737.71	-17.43
738.02	-12.91
738.34	-23.24
738.66	-20.98
738.97	-19.05
739.29	7.10
739.61	11.30
739.93	10.98
740.24	5.49
740.56	6.46
740.87	29.38
741.19	21.63
741.51	6.13
741.82	-1.61
742.14	9.04
742.46	1.61
742.77	2.26
743.09	16.46
743.41	19.37
743.72	8.39
744.04	2.91
744.35	-9.68
744.67	-6.46
744.99	-9.04
745.30	-38.42
745.62	-14.53
745.93	-3.55
746.25	0.97
746.56	9.04
746.88	21.95
747.20	46.81
747.51	48.10
747.83	29.70
748.14	28.73
748.46	33.57
748.77	15.50
749.09	12.59
749.40	4.84
749.72	11.30
750.03	23.24
750.35	14.85
750.66	19.37
750.98	38.42
751.29	44.55
751.61	41.32
751.92	45.52
752.24	36.80
752.55	44.23
752.87	29.70
753.18	7.43
753.50	-2.26
753.81	4.84
754.13	-13.24
754.44	-22.28
754.76	-23.89
755.07	-10.98
755.38	3.55
755.70	-9.04
756.01	-29.38
756.33	-15.17
756.64	-5.81
756.95	-22.92
757.27	-35.83
757.58	-36.16
757.90	-17.43
758.21	-3.87
758.52	2.26
758.84	-9.68
759.15	10.98
759.47	40.35
759.78	43.26
760.09	42.61
760.41	41.65
760.72	53.59
761.03	56.17
761.35	37.13
761.66	20.34
761.97	26.47
762.29	19.05
762.60	14.85
762.91	-5.81
763.23	6.46
763.54	17.11
763.85	18.72
764.17	6.46
764.48	8.07
764.79	11.30
765.10	7.43
765.42	12.91
765.73	13.88
766.04	12.59
766.36	15.50
766.67	13.24
766.98	4.20
767.29	9.68
767.61	-2.26
767.92	6.46
768.23	-11.94
768.54	-12.59
768.86	-9.68
769.17	2.26
769.48	2.26
769.79	-2.26
770.10	1.29
770.42	2.58
770.73	1.94
771.04	3.87
771.35	4.20
771.66	8.72
771.98	21.31
772.29	4.20
772.60	7.75
772.91	18.40
773.22	13.24
773.53	2.91
773.85	1.61
774.16	-4.20
774.47	-3.55
774.78	4.20
775.09	8.07
775.40	11.30
775.71	14.20
776.02	20.98
776.34	19.05
776.65	39.06
776.96	50.04
777.27	29.38
777.58	41.97
777.89	36.16
778.20	4.52
778.51	-5.49
778.82	-14.53
779.13	-21.95
779.44	-16.46
779.75	-27.12
780.06	-24.21
780.38	11.30
780.69	21.31
781.00	0.65
781.31	-6.46
781.62	-10.01
781.93	-18.08
782.24	-24.21
782.55	-36.80
782.86	-34.22
783.17	-26.80
783.48	-40.68
783.79	-36.16
784.10	-38.09
784.41	-40.35
784.72	-44.55
785.03	-41.00
785.34	-30.67
785.65	-16.14
785.96	-8.39
786.27	-2.91
786.57	5.81
786.88	15.50
787.19	14.53
787.50	-6.78
787.81	-20.02
788.12	-15.82
788.43	2.58
788.74	12.27
789.05	7.75
789.36	4.84
789.67	20.34
789.98	53.59
790.29	41.97
790.59	22.28
790.90	14.85
791.21	10.33
791.52	20.98
791.83	33.57
792.14	24.21
792.45	26.47
792.75	40.68
793.06	27.12
793.37	30.99
793.68	8.39
793.99	-0.32
794.30	-9.04
794.60	12.91
794.91	17.11
795.22	37.77
795.53	27.76
795.84	45.84
796.15	54.56
796.45	49.72
796.76	41.65
797.07	24.86
797.38	18.72
797.68	22.92
797.99	15.82
798.30	15.82
798.61	20.02
798.91	3.55
799.22	9.68
799.53	15.17
799.84	25.50
800.14	25.83
800.45	25.83
800.76	41.65
801.07	49.39
801.37	41.97
801.68	30.99
801.99	26.47
802.29	40.03
802.60	24.21
802.91	8.07
803.22	-19.37
803.52	-14.85
803.83	-13.24
804.14	-16.14
804.44	-24.54
804.75	-20.66
805.06	-17.76
805.36	-13.24
805.67	-31.64
805.97	-44.23
806.28	-41.32
806.59	-51.33
806.89	-53.91
807.20	-71.67
807.51	-53.91
807.81	-44.55
808.12	-19.05
808.42	-22.28
808.73	-19.05
809.04	-7.43
809.34	7.10
809.65	4.84
809.95	10.01
810.26	2.58
810.56	5.17
810.87	0.97
811.18	-2.58
811.48	1.94
811.79	-3.23
812.09	-0.65
812.40	-6.46
812.70	-12.27
813.01	-21.31
813.31	-24.54
813.62	-20.34
813.92	-8.72
814.23	-15.82
814.53	-17.43
814.84	-0.32
815.14	16.14
815.45	7.43
815.75	5.49
816.06	20.34
816.36	36.80
816.67	46.49
816.97	37.77
817.28	46.49
817.58	68.44
817.89	65.53
818.19	35.19
818.49	30.67
818.80	20.66
819.10	15.82
819.41	4.52
819.71	-9.04
820.01	-19.37
820.32	-13.88
820.62	-32.93
820.93	-22.60
821.23	-17.43
821.53	-10.98
821.84	-8.72
822.14	-3.23
822.45	-19.05
822.75	4.84
823.05	-0.97
823.36	8.39
823.66	9.68
823.96	7.10
824.27	10.01
824.57	31.96
824.87	20.66
825.18	21.31
825.48	7.75
825.78	22.92
826.09	34.22
826.39	38.09
826.69	38.09
827.00	33.90
827.30	41.97
827.60	46.81
827.90	27.76
828.21	24.86
828.51	22.60
828.81	6.13
829.11	21.63
829.42	-1.29
829.72	-2.58
830.02	-24.21
830.32	-24.21
830.63	-14.85
830.93	-15.50
831.23	-36.16
831.53	-13.88
831.84	-14.53
832.14	24.21
832.44	22.92
832.74	3.87
833.04	15.17
833.35	9.68
833.65	13.88
833.95	13.88
834.25	-10.33
834.55	-5.49
834.85	5.17
835.16	23.89
835.46	47.13
835.76	41.00
836.06	36.16
836.36	37.13
836.66	24.86
836.96	11.94
837.26	-13.24
837.57	-26.15
837.87	-41.00
838.17	-38.09
838.47	-29.05
838.77	-33.90
839.07	-16.79
839.37	1.29
839.67	21.31
839.97	29.70
840.27	16.14
840.57	20.66
840.88	22.92
841.18	18.72
841.48	1.29
841.78	-16.14
842.08	-11.94
842.38	11.94
842.68	13.56
842.98	30.67
843.28	24.21
843.58	29.70
843.88	42.61
844.18	46.49
844.48	46.17
844.78	44.87
845.08	43.91
845.38	51.33
845.68	46.49
845.98	34.22
846.28	25.18
846.58	13.88
846.88	-10.01
847.18	-37.45
847.48	-35.19
847.78	-32.93
848.07	-33.90
848.37	-41.32
848.67	-37.13
848.97	-18.40
849.27	9.04
849.57	7.10
849.87	16.46
850.17	14.53
850.47	27.76
850.77	20.34
851.07	-3.23
851.36	-13.24
851.66	-20.98
851.96	-30.99
852.26	-38.74
852.56	-37.13
852.86	-23.89
853.16	-5.17
853.45	-19.05
853.75	-11.62
854.05	-10.98
854.35	2.91
854.65	-11.30
854.95	-31.64
855.24	-24.86
855.54	1.94
855.84	-8.72
856.14	-12.91
856.44	9.04
856.73	42.29
857.03	59.08
857.33	63.60
857.63	51.98
857.93	60.05
858.22	67.15
858.52	43.91
858.82	17.76
859.12	22.92
859.41	11.62
859.71	17.11
860.01	28.09
860.30	37.77
860.60	46.81
860.90	47.78
861.20	32.61
861.49	28.41
861.79	18.72
862.09	8.72
862.38	-8.39
862.68	-14.85
862.98	-0.32
863.27	7.10
863.57	20.34
863.87	22.28
864.16	28.41
864.46	31.31
864.76	31.31
865.05	26.80
865.35	21.31
865.65	7.10
865.94	12.59
866.24	-20.98
866.54	-13.56
866.83	-1.61
867.13	8.39
867.42	10.01
867.72	12.59
868.02	-2.91
868.31	11.30
868.61	12.27
868.90	-8.39
869.20	-18.72
869.49	-19.69
869.79	-20.34
870.08	-8.39
870.38	10.33
870.68	13.56
870.97	30.35
871.27	22.28
871.56	11.62
871.86	27.44
872.15	38.42
872.45	46.17
872.74	54.88
873.04	55.85
873.33	66.18
873.63	73.28
873.92	47.78
874.22	37.13
874.51	33.25
874.81	33.25
875.10	23.89
875.40	7.75
875.69	19.37
875.98	34.54
876.28	34.87
876.57	26.15
876.87	0.97
877.16	-8.39
877.46	-8.07
877.75	-10.65
878.04	-17.43
878.34	-20.02
878.63	-12.59
878.93	8.07
879.22	7.43
879.51	15.50
879.81	17.43
880.10	27.12
880.40	14.20
880.69	-2.26
880.98	-19.69
881.28	-9.04
881.57	-18.08
881.86	-21.63
882.16	-17.76
882.45	3.23
882.74	11.30
883.04	31.31
883.33	32.28
883.62	32.61
883.92	79.09
884.21	27.12
884.50	-40.68
>>>>>End Processed Spectral Data<<<<<
