SpectraSuite Data File
++++++++++++++++++++++++++++++++++++
Date: Fri Feb 20 12:10:39 EST 2015
User: Administrator
Dark Spectrum Present: Yes
Reference Spectrum Present: No
Number of Sampled Component Spectra: 1
Spectrometers: SB2+H01071
Integration Time (usec): 5000000 (SB2+H01071)
Spectra Averaged: 1 (SB2+H01071)
Boxcar Smoothing: 3 (SB2+H01071)
Correct for Electrical Dark: No (SB2+H01071)
Strobe/Lamp Enabled: Yes (SB2+H01071)
Correct for Detector Non-linearity: No (SB2+H01071)
Correct for Stray Light: No (SB2+H01071)
Number of Pixels in Processed Spectrum: 2048
>>>>>Begin Processed Spectral Data<<<<<
191.06	31.64
191.43	31.64
191.81	31.64
192.19	14.20
192.56	17.11
192.94	14.53
193.31	-11.62
193.69	-17.76
194.07	-22.92
194.44	-4.84
194.82	-15.50
195.19	-30.35
195.57	-28.73
195.95	-0.97
196.32	8.39
196.70	-2.26
197.07	-14.20
197.45	-23.89
197.83	-3.55
198.20	-14.85
198.58	-17.11
198.95	-1.94
199.33	8.39
199.70	7.43
200.08	10.98
200.46	10.98
200.83	14.85
201.21	17.43
201.58	2.58
201.96	9.04
202.33	28.73
202.71	46.49
203.09	29.38
203.46	26.47
203.84	23.57
204.21	17.11
204.59	11.94
204.96	7.10
205.34	-7.43
205.71	6.13
206.09	21.63
206.46	13.56
206.84	24.21
207.21	22.60
207.59	15.50
207.96	11.94
208.34	-7.43
208.71	-11.30
209.09	-15.50
209.46	-30.67
209.84	-18.08
210.21	-14.20
210.59	2.91
210.96	2.26
211.34	-6.78
211.71	6.46
212.09	19.69
212.46	5.49
212.84	4.20
213.21	-14.85
213.59	0.32
213.96	1.29
214.34	-1.94
214.71	-13.56
215.08	0.65
215.46	2.91
215.83	8.07
216.21	2.91
216.58	13.24
216.96	18.08
217.33	28.73
217.70	10.98
218.08	-4.52
218.45	-1.94
218.83	-5.81
219.20	-20.66
219.58	-31.31
219.95	-34.22
220.32	-27.76
220.70	-23.89
221.07	-25.83
221.45	-23.57
221.82	-20.34
222.19	-15.17
222.57	-22.28
222.94	-11.62
223.32	-8.07
223.69	-7.10
224.06	-0.32
224.44	2.26
224.81	4.20
225.18	6.13
225.56	14.53
225.93	20.66
226.31	31.96
226.68	24.21
227.05	18.40
227.43	11.62
227.80	1.61
228.17	-16.14
228.55	-17.43
228.92	-30.02
229.29	-23.57
229.67	-4.52
230.04	-12.59
230.41	-2.26
230.79	-6.78
231.16	0.00
231.53	0.97
231.91	1.61
232.28	-6.13
232.65	0.97
233.03	7.43
233.40	28.09
233.77	19.37
234.15	23.24
234.52	30.35
234.89	35.83
235.26	32.61
235.64	29.70
236.01	4.84
236.38	7.75
236.76	2.58
237.13	-17.11
237.50	-28.41
237.87	-31.31
238.25	-24.86
238.62	-12.27
238.99	-18.72
239.36	-1.29
239.74	7.75
240.11	-0.00
240.48	2.91
240.85	-3.87
241.23	-0.97
241.60	-0.65
241.97	-17.11
242.34	-29.05
242.72	-14.53
243.09	-7.43
243.46	-25.83
243.83	-41.32
244.20	-41.00
244.58	-32.61
244.95	-20.66
245.32	-27.44
245.69	-39.71
246.07	-18.40
246.44	-26.47
246.81	-20.66
247.18	-25.18
247.55	-30.67
247.92	-24.54
248.30	-14.53
248.67	-19.69
249.04	-4.20
249.41	-0.97
249.78	-5.81
250.16	23.24
250.53	22.60
250.90	19.37
251.27	30.67
251.64	35.51
252.01	34.54
252.39	42.29
252.76	20.02
253.13	2.26
253.50	0.32
253.87	-10.01
254.24	-25.18
254.61	-30.35
254.98	-45.84
255.36	-52.62
255.73	-28.73
256.10	-20.34
256.47	-15.17
256.84	7.75
257.21	11.94
257.58	18.40
257.95	15.82
258.33	3.55
258.70	-3.55
259.07	-1.94
259.44	-7.43
259.81	-8.07
260.18	-4.52
260.55	4.20
260.92	1.29
261.29	6.13
261.66	4.52
262.03	-1.94
262.40	-16.46
262.77	-8.72
263.15	-20.02
263.52	-21.63
263.89	-28.09
264.26	-31.96
264.63	-41.65
265.00	-44.87
265.37	-42.61
265.74	-34.22
266.11	-34.54
266.48	-5.17
266.85	-1.94
267.22	5.81
267.59	20.34
267.96	17.11
268.33	14.53
268.70	23.24
269.07	2.91
269.44	-2.58
269.81	-2.58
270.18	8.72
270.55	4.20
270.92	7.43
271.29	21.31
271.66	28.09
272.03	38.42
272.40	42.61
272.77	24.86
273.14	25.83
273.51	27.12
273.88	0.32
274.25	-10.98
274.62	-23.24
274.99	-31.31
275.36	-15.50
275.73	-22.28
276.10	-15.50
276.47	-4.20
276.84	-1.94
277.21	1.94
277.58	-13.88
277.94	-12.59
278.31	-3.87
278.68	-1.61
279.05	-9.68
279.42	-22.92
279.79	-34.22
280.16	-8.07
280.53	-22.28
280.90	-49.39
281.27	-69.09
281.64	-51.98
282.01	-37.77
282.37	-34.87
282.74	-32.61
283.11	-24.21
283.48	-1.61
283.85	-6.13
284.22	-9.36
284.59	-22.28
284.96	-22.60
285.33	-10.01
285.69	-20.66
286.06	-20.66
286.43	-0.32
286.80	3.23
287.17	24.21
287.54	47.78
287.91	32.61
288.27	58.43
288.64	69.41
289.01	60.05
289.38	54.88
289.75	41.65
290.12	35.19
290.48	16.79
290.85	-7.75
291.22	-47.13
291.59	-56.82
291.96	-57.79
292.33	-71.35
292.69	-92.01
293.06	-75.54
293.43	-72.64
293.80	-51.01
294.17	-33.57
294.53	-40.03
294.90	-23.24
295.27	10.01
295.64	31.96
296.01	42.61
296.37	59.08
296.74	52.94
297.11	51.33
297.48	50.04
297.84	22.92
298.21	0.65
298.58	-22.60
298.95	-32.28
299.31	-36.80
299.68	-19.05
300.05	-10.33
300.42	-0.32
300.78	1.94
301.15	17.11
301.52	2.91
301.89	11.94
302.25	-9.04
302.62	-8.72
302.99	-11.62
303.35	-22.28
303.72	-23.57
304.09	-27.76
304.46	-31.96
304.82	-19.05
305.19	-13.56
305.56	-14.85
305.92	1.94
306.29	12.27
306.66	29.38
307.02	16.46
307.39	15.82
307.76	17.11
308.12	25.83
308.49	-4.84
308.86	-24.21
309.23	-28.41
309.59	-10.01
309.96	-16.46
310.32	-23.24
310.69	-35.83
311.06	-16.14
311.42	-11.62
311.79	-23.89
312.16	-40.35
312.52	-36.16
312.89	-40.68
313.26	-43.26
313.62	-51.33
313.99	-52.62
314.35	-39.39
314.72	-12.27
315.09	-15.82
315.45	-12.27
315.82	-1.94
316.19	-2.26
316.55	-0.65
316.92	13.88
317.28	1.61
317.65	-4.52
318.02	-12.91
318.38	-27.76
318.75	-16.14
319.11	-11.94
319.48	-36.48
319.84	-30.02
320.21	-27.76
320.58	-14.85
320.94	11.62
321.31	3.87
321.67	4.52
322.04	12.59
322.40	6.13
322.77	8.39
323.13	1.94
323.50	-9.04
323.86	-11.30
324.23	-7.10
324.60	-3.55
324.96	0.00
325.33	-20.98
325.69	-34.87
326.06	-34.87
326.42	-38.74
326.79	-55.53
327.15	-51.65
327.52	-62.63
327.88	-41.00
328.25	-29.38
328.61	-31.31
328.98	-12.59
329.34	-8.07
329.71	-29.70
330.07	-36.48
330.44	-40.68
330.80	-51.33
331.16	-67.47
331.53	-77.48
331.89	-59.40
332.26	-20.98
332.62	-2.26
332.99	14.20
333.35	35.51
333.72	59.72
334.08	61.34
334.45	48.42
334.81	39.71
335.17	31.31
335.54	27.12
335.90	2.58
336.27	-16.14
336.63	-12.91
337.00	-8.07
337.36	-23.57
337.72	-22.60
338.09	-23.89
338.45	-4.52
338.82	16.14
339.18	11.94
339.54	15.82
339.91	26.15
340.27	23.89
340.63	20.98
341.00	10.33
341.36	10.01
341.73	8.72
342.09	20.98
342.45	32.93
342.82	38.74
343.18	47.46
343.54	70.05
343.91	65.21
344.27	67.15
344.63	57.14
345.00	42.29
345.36	45.20
345.72	42.94
346.09	14.53
346.45	14.53
346.81	10.01
347.18	12.27
347.54	13.56
347.90	2.58
348.27	-3.23
348.63	0.97
348.99	-13.56
349.36	-1.94
349.72	-9.68
350.08	-21.31
350.45	-36.16
350.81	-30.67
351.17	-15.82
351.53	-12.27
351.90	-10.33
352.26	-15.17
352.62	-4.52
352.98	13.56
353.35	9.36
353.71	8.39
354.07	28.09
354.44	26.47
354.80	49.72
355.16	48.75
355.52	46.17
355.88	45.20
356.25	41.00
356.61	10.01
356.97	-8.39
357.33	-21.31
357.70	-18.08
358.06	-10.98
358.42	-21.63
358.78	-32.28
359.15	-13.24
359.51	-1.61
359.87	-11.62
360.23	-7.75
360.59	-5.81
360.95	-5.17
361.32	7.75
361.68	11.30
362.04	8.07
362.40	11.62
362.76	1.94
363.13	1.29
363.49	18.08
363.85	21.31
364.21	0.32
364.57	3.55
364.93	3.23
365.30	17.11
365.66	14.85
366.02	4.52
366.38	6.78
366.74	26.47
367.10	34.22
367.46	31.31
367.83	8.72
368.19	3.87
368.55	-2.58
368.91	-20.66
369.27	-24.86
369.63	-21.31
369.99	-25.83
370.35	-19.69
370.71	-12.59
371.08	3.23
371.44	15.17
371.80	24.21
372.16	19.37
372.52	25.18
372.88	33.25
373.24	25.18
373.60	20.98
373.96	19.37
374.32	20.34
374.68	7.43
375.04	4.20
375.40	-8.72
375.76	6.13
376.13	6.46
376.49	10.33
376.85	3.23
377.21	15.17
377.57	16.79
377.93	35.51
378.29	38.42
378.65	30.99
379.01	30.67
379.37	19.05
379.73	4.52
380.09	13.24
380.45	-2.58
380.81	-18.72
381.17	-26.15
381.53	-35.51
381.89	-29.05
382.25	-12.91
382.61	-28.73
382.97	-29.05
383.33	-27.44
383.69	-13.56
384.05	-7.43
384.41	3.87
384.77	10.01
385.13	29.05
385.49	35.51
385.85	35.51
386.20	44.23
386.56	18.08
386.92	-9.68
387.28	-20.98
387.64	-28.09
388.00	-45.52
388.36	-41.32
388.72	-46.81
389.08	-36.80
389.44	-23.57
389.80	-20.02
390.16	-23.57
390.52	-7.75
390.88	-16.46
391.23	-21.63
391.59	3.87
391.95	-3.87
392.31	-14.85
392.67	-29.05
393.03	-18.08
393.39	-18.08
393.75	-10.33
394.11	-18.40
394.46	0.32
394.82	17.11
395.18	30.67
395.54	15.82
395.90	25.50
396.26	19.69
396.62	1.61
396.97	-7.10
397.33	-25.50
397.69	-35.19
398.05	-36.48
398.41	-48.10
398.77	-54.56
399.12	-33.25
399.48	-24.54
399.84	-17.43
400.20	-2.91
400.56	4.20
400.91	4.52
401.27	-6.13
401.63	-9.68
401.99	-13.88
402.35	-18.40
402.70	-32.28
403.06	-24.86
403.42	-23.57
403.78	-3.23
404.14	-7.10
404.49	-8.39
404.85	-4.20
405.21	1.61
405.57	-11.30
405.92	2.26
406.28	-7.43
406.64	-1.29
407.00	-2.26
407.35	1.61
407.71	2.58
408.07	2.91
408.43	-11.94
408.78	-8.72
409.14	8.39
409.50	18.72
409.85	19.69
410.21	20.98
410.57	24.86
410.93	30.67
411.28	38.42
411.64	16.79
412.00	10.33
412.35	14.53
412.71	11.62
413.07	7.10
413.42	11.94
413.78	12.59
414.14	13.56
414.49	-0.32
414.85	6.78
415.21	10.01
415.56	22.92
415.92	38.74
416.28	32.93
416.63	30.99
416.99	48.42
417.35	36.16
417.70	35.51
418.06	17.11
418.42	10.33
418.77	12.59
419.13	10.65
419.48	-0.97
419.84	-4.52
420.20	4.84
420.55	13.88
420.91	3.55
421.27	7.75
421.62	25.18
421.98	34.87
422.33	37.77
422.69	38.42
423.05	37.77
423.40	39.06
423.76	39.39
424.11	29.70
424.47	19.69
424.82	41.00
425.18	20.98
425.54	12.59
425.89	-0.32
426.25	-15.17
426.60	-21.63
426.96	-20.02
427.31	-46.81
427.67	-28.41
428.02	-4.84
428.38	6.46
428.73	11.30
429.09	1.94
429.44	5.17
429.80	7.75
430.15	3.55
430.51	-3.23
430.86	0.65
431.22	2.58
431.57	9.04
431.93	6.46
432.28	4.20
432.64	4.20
432.99	2.58
433.35	3.23
433.70	-6.13
434.06	-4.20
434.41	3.23
434.77	17.11
435.12	20.98
435.48	3.55
435.83	4.84
436.19	17.11
436.54	24.21
436.89	20.02
437.25	6.13
437.60	-14.20
437.96	4.84
438.31	4.84
438.67	-4.84
439.02	-14.53
439.37	-30.02
439.73	-40.03
440.08	-12.91
440.44	-24.86
440.79	-18.72
441.15	-12.27
441.50	-7.10
441.85	-4.20
442.21	16.46
442.56	9.04
442.91	10.01
443.27	-2.58
443.62	-5.17
443.98	-3.87
444.33	8.72
444.68	3.87
445.04	8.07
445.39	35.19
445.74	32.93
446.10	37.77
446.45	18.08
446.80	41.65
447.16	34.22
447.51	32.28
447.86	13.24
448.22	28.09
448.57	16.46
448.92	27.44
449.28	3.87
449.63	-3.87
449.98	-12.91
450.34	-10.98
450.69	-26.80
451.04	-15.82
451.40	-3.87
451.75	-12.91
452.10	2.91
452.45	-0.32
452.81	6.46
453.16	2.91
453.51	5.17
453.86	13.24
454.22	10.65
454.57	8.72
454.92	4.52
455.27	-1.29
455.63	7.43
455.98	1.61
456.33	-25.18
456.68	-33.90
457.04	-48.42
457.39	-58.11
457.74	-53.59
458.09	-57.46
458.45	-58.11
458.80	-48.10
459.15	-23.24
459.50	-16.14
459.85	-7.75
460.21	-26.80
460.56	-30.02
460.91	-27.76
461.26	-22.60
461.61	-36.80
461.97	-30.02
462.32	-11.30
462.67	-15.50
463.02	-2.26
463.37	6.46
463.72	8.72
464.08	4.20
464.43	-6.78
464.78	-8.72
465.13	0.65
465.48	0.97
465.83	-7.10
466.18	-5.49
466.54	16.14
466.89	20.34
467.24	19.37
467.59	18.72
467.94	7.43
468.29	17.11
468.64	16.79
468.99	7.75
469.34	3.23
469.70	-11.30
470.05	-8.39
470.40	-2.91
470.75	-14.53
471.10	-30.02
471.45	-48.10
471.80	-40.35
472.15	-40.68
472.50	-32.28
472.85	-40.03
473.20	-37.77
473.55	-35.19
473.90	-19.05
474.25	-25.18
474.61	-16.79
474.96	-30.02
475.31	-19.37
475.66	-29.38
476.01	-19.37
476.36	-11.94
476.71	5.49
477.06	20.34
477.41	33.57
477.76	38.74
478.11	35.83
478.46	38.74
478.81	40.03
479.16	24.86
479.51	15.50
479.86	4.52
480.21	-6.78
480.56	-0.32
480.91	-11.62
481.26	-8.39
481.61	-10.01
481.96	-3.87
482.31	-1.29
482.66	-12.27
483.00	-14.85
483.35	-21.95
483.70	-36.16
484.05	-39.71
484.40	-56.50
484.75	-60.69
485.10	-52.94
485.45	-51.01
485.80	-51.65
486.15	-49.39
486.50	-43.58
486.85	-34.87
487.20	-45.84
487.55	-49.07
487.89	-49.07
488.24	-34.54
488.59	-19.37
488.94	-8.39
489.29	-21.63
489.64	-9.04
489.99	0.97
490.34	1.94
490.68	4.20
491.03	-18.08
491.38	-24.21
491.73	-11.94
492.08	5.49
492.43	2.91
492.78	2.91
493.12	-8.39
493.47	-1.61
493.82	-8.07
494.17	-4.84
494.52	-20.98
494.87	-33.90
495.21	-49.39
495.56	-34.54
495.91	-36.48
496.26	-22.92
496.61	-6.78
496.95	-6.78
497.30	4.52
497.65	23.89
498.00	15.50
498.35	20.98
498.69	13.88
499.04	-24.86
499.39	-24.86
499.74	-21.63
500.08	-22.60
500.43	-10.01
500.78	-18.72
501.13	-28.09
501.48	-19.69
501.82	-6.46
502.17	-20.98
502.52	-15.50
502.86	-40.68
503.21	-45.52
503.56	-28.09
503.91	-24.86
504.25	-38.42
504.60	-21.95
504.95	-27.44
505.30	-1.61
505.64	18.40
505.99	1.61
506.34	-3.55
506.68	1.29
507.03	-8.72
507.38	11.62
507.72	5.49
508.07	-3.87
508.42	18.08
508.76	15.82
509.11	14.53
509.46	30.67
509.80	20.02
510.15	12.27
510.50	7.43
510.84	-9.36
511.19	2.26
511.54	0.00
511.88	-6.78
512.23	-12.27
512.57	0.00
512.92	0.65
513.27	-2.91
513.61	4.52
513.96	-4.20
514.31	-1.29
514.65	-1.94
515.00	-20.98
515.34	-2.91
515.69	-4.84
516.03	-12.91
516.38	-9.68
516.73	-26.80
517.07	-43.91
517.42	-39.71
517.76	-56.50
518.11	-46.81
518.45	-46.17
518.80	-51.01
519.15	-46.49
519.49	-17.76
519.84	-6.78
520.18	-27.12
520.53	-39.06
520.87	-38.09
521.22	-32.61
521.56	-15.82
521.91	-31.31
522.25	-38.09
522.60	-7.43
522.94	9.36
523.29	15.82
523.63	19.37
523.98	9.04
524.32	16.46
524.67	6.78
525.01	-12.59
525.36	-16.46
525.70	-23.57
526.05	-21.31
526.39	-33.57
526.74	-32.28
527.08	-25.18
527.43	-22.92
527.77	-21.63
528.12	-26.80
528.46	-25.18
528.80	-5.17
529.15	-4.84
529.49	2.91
529.84	21.63
530.18	17.11
530.53	18.72
530.87	26.15
531.21	24.54
531.56	26.47
531.90	23.57
532.25	12.59
532.59	24.54
532.93	29.38
533.28	14.53
533.62	22.60
533.97	24.86
534.31	21.95
534.65	34.22
535.00	41.32
535.34	41.32
535.68	49.72
536.03	21.31
536.37	14.85
536.71	27.44
537.06	17.43
537.40	0.32
537.74	-1.94
538.09	-17.43
538.43	-1.94
538.77	-20.34
539.12	-23.57
539.46	-19.69
539.80	-16.46
540.15	-9.36
540.49	17.43
540.83	11.94
541.18	81.35
541.52	82.32
541.86	91.04
542.20	81.03
542.55	73.61
542.89	73.28
543.23	75.87
543.58	23.89
543.92	12.27
544.26	-4.52
544.60	2.58
544.95	17.76
545.29	-16.46
545.63	-24.54
545.97	-34.87
546.32	-36.48
546.66	-17.11
547.00	2.91
547.34	-5.17
547.68	20.98
548.03	18.40
548.37	16.79
548.71	28.09
549.05	7.43
549.39	-8.72
549.74	-19.05
550.08	-33.90
550.42	-19.69
550.76	-18.40
551.10	-30.99
551.45	-21.95
551.79	-32.61
552.13	-30.35
552.47	-14.20
552.81	-15.50
553.15	-1.29
553.50	-7.10
553.84	-6.78
554.18	1.94
554.52	17.43
554.86	24.21
555.20	31.31
555.54	19.69
555.88	37.13
556.23	32.93
556.57	40.68
556.91	6.13
557.25	-2.91
557.59	-23.89
557.93	-13.24
558.27	-22.28
558.61	-13.24
558.95	-16.14
559.29	2.26
559.64	-8.39
559.98	-30.67
560.32	-24.54
560.66	-34.22
561.00	-36.48
561.34	-57.79
561.68	-49.07
562.02	-42.61
562.36	-3.87
562.70	-15.50
563.04	-1.94
563.38	-10.65
563.72	3.87
564.06	12.91
564.40	20.66
564.74	17.43
565.08	8.72
565.42	1.29
565.76	-3.55
566.10	-1.94
566.44	-20.66
566.78	-32.93
567.12	-28.09
567.46	-13.56
567.80	-6.46
568.14	1.29
568.48	-2.58
568.82	10.98
569.16	-4.20
569.50	-9.04
569.84	-15.50
570.18	-10.98
570.52	3.55
570.86	19.37
571.20	5.17
571.54	17.76
571.88	19.37
572.22	19.05
572.55	4.84
572.89	10.01
573.23	17.43
573.57	17.11
573.91	22.92
574.25	10.65
574.59	7.43
574.93	17.43
575.27	0.00
575.61	-22.60
575.94	-19.05
576.28	-21.63
576.62	-3.55
576.96	6.13
577.30	2.58
577.64	15.82
577.98	19.69
578.32	36.16
578.65	47.78
578.99	52.94
579.33	56.82
579.67	67.47
580.01	60.05
580.35	60.37
580.68	50.36
581.02	40.68
581.36	32.61
581.70	18.72
582.04	7.43
582.37	-1.29
582.71	-2.91
583.05	2.58
583.39	1.94
583.73	-4.52
584.06	5.17
584.40	5.17
584.74	4.84
585.08	-10.33
585.41	-8.39
585.75	-4.20
586.09	-6.78
586.43	-26.80
586.76	-27.44
587.10	-19.05
587.44	-7.10
587.78	-25.18
588.11	-44.23
588.45	-50.36
588.79	-47.78
589.13	-34.87
589.46	-47.78
589.80	-40.03
590.14	-29.70
590.47	-10.65
590.81	2.26
591.15	11.94
591.48	-3.87
591.82	-0.32
592.16	-10.98
592.50	-11.94
592.83	-19.05
593.17	-22.28
593.51	-25.83
593.84	-19.69
594.18	-14.85
594.51	4.84
594.85	21.63
595.19	21.95
595.52	19.37
595.86	13.56
596.20	32.28
596.53	52.62
596.87	50.68
597.21	35.19
597.54	46.81
597.88	42.29
598.21	54.24
598.55	49.07
598.89	15.50
599.22	19.05
599.56	16.14
599.89	10.98
600.23	19.37
600.57	19.05
600.90	8.72
601.24	30.02
601.57	13.24
601.91	5.81
602.24	3.87
602.58	-3.55
602.91	-8.07
603.25	-6.13
603.58	-13.56
603.92	-3.23
604.26	13.24
604.59	13.56
604.93	13.56
605.26	23.24
605.60	27.76
605.93	27.76
606.27	7.10
606.60	3.23
606.94	8.39
607.27	18.72
607.61	21.31
607.94	11.30
608.28	9.36
608.61	25.83
608.95	18.40
609.28	18.08
609.61	9.36
609.95	4.84
610.28	18.72
610.62	11.62
610.95	10.65
611.29	17.11
611.62	9.04
611.96	22.60
612.29	30.67
612.62	14.85
612.96	26.80
613.29	37.13
613.63	23.89
613.96	20.34
614.29	12.59
614.63	-2.26
614.96	-6.78
615.30	-14.20
615.63	-20.98
615.96	-18.08
616.30	-4.84
616.63	-8.39
616.97	7.43
617.30	25.50
617.63	28.73
617.97	21.95
618.30	22.60
618.63	2.58
618.97	-9.04
619.30	-23.24
619.63	-37.45
619.97	-48.10
620.30	-45.52
620.63	-37.77
620.97	-34.87
621.30	-13.56
621.63	-6.46
621.97	12.27
622.30	25.83
622.63	22.60
622.96	16.46
623.30	28.41
623.63	20.66
623.96	13.24
624.30	7.43
624.63	-0.65
624.96	-2.58
625.29	-14.20
625.63	-12.27
625.96	6.13
626.29	9.68
626.62	0.97
626.96	2.26
627.29	7.43
627.62	24.86
627.95	23.89
628.28	24.86
628.62	32.28
628.95	21.31
629.28	17.11
629.61	36.48
629.95	50.04
630.28	45.52
630.61	37.77
630.94	24.21
631.27	27.44
631.60	33.25
631.94	5.81
632.27	-2.58
632.60	9.68
632.93	-3.87
633.26	-2.58
633.59	11.62
633.93	19.05
634.26	33.57
634.59	20.98
634.92	2.58
635.25	6.78
635.58	-1.94
635.91	-5.81
636.24	-11.30
636.58	-0.97
636.91	4.84
637.24	17.76
637.57	12.59
637.90	25.18
638.23	25.50
638.56	34.54
638.89	21.31
639.22	17.76
639.55	5.17
639.88	7.75
640.22	-9.36
640.55	-25.18
640.88	-32.61
641.21	-61.34
641.54	-53.27
641.87	-43.91
642.20	-56.82
642.53	-50.04
642.86	-37.13
643.19	-33.57
643.52	-11.94
643.85	-26.47
644.18	-29.38
644.51	-23.89
644.84	-3.87
645.17	-0.32
645.50	-17.76
645.83	-13.24
646.16	7.10
646.49	10.65
646.82	32.28
647.15	14.20
647.48	8.07
647.81	25.18
648.14	24.86
648.47	0.65
648.80	-6.78
649.13	-30.67
649.46	-21.63
649.79	-11.62
650.11	-21.95
650.44	-10.65
650.77	2.58
651.10	9.68
651.43	32.93
651.76	17.43
652.09	2.26
652.42	3.87
652.75	-7.75
653.08	-0.97
653.41	5.17
653.73	-5.49
654.06	0.00
654.39	-8.39
654.72	-3.23
655.05	-15.82
655.38	-20.66
655.71	-26.15
656.04	-27.44
656.36	-16.46
656.69	-1.29
657.02	-18.08
657.35	-14.53
657.68	-17.11
658.01	-15.17
658.33	-9.04
658.66	-13.56
658.99	-19.37
659.32	-14.20
659.65	-2.91
659.97	-7.75
660.30	-6.46
660.63	-20.66
660.96	-23.57
661.29	-11.62
661.61	0.97
661.94	-9.36
662.27	-0.00
662.60	-10.01
662.92	0.00
663.25	-7.43
663.58	-4.84
663.91	-3.55
664.23	-12.91
664.56	0.32
664.89	3.87
665.22	4.84
665.54	27.44
665.87	13.56
666.20	6.13
666.53	10.33
666.85	1.61
667.18	-6.13
667.51	-11.30
667.83	-28.73
668.16	-21.63
668.49	-24.86
668.81	-11.30
669.14	-26.47
669.47	-15.50
669.79	-4.20
670.12	-9.68
670.45	-26.80
670.77	-18.08
671.10	-11.62
671.43	-11.30
671.75	-16.79
672.08	-44.23
672.41	-32.28
672.73	-16.14
673.06	-20.98
673.39	-21.31
673.71	-5.81
674.04	-6.46
674.36	8.72
674.69	20.66
675.02	20.02
675.34	27.12
675.67	19.05
675.99	-0.65
676.32	12.91
676.64	17.76
676.97	2.58
677.30	13.56
677.62	7.43
677.95	8.39
678.27	16.46
678.60	13.88
678.92	17.43
679.25	26.15
679.57	16.46
679.90	11.62
680.22	16.46
680.55	24.21
680.88	8.72
681.20	-16.46
681.53	-28.09
681.85	-29.70
682.18	-23.89
682.50	-26.80
682.83	-28.73
683.15	-18.40
683.47	9.68
683.80	-1.29
684.12	-6.78
684.45	-16.14
684.77	-11.94
685.10	-27.44
685.42	-35.19
685.75	-48.75
686.07	-33.57
686.40	-30.67
686.72	-12.91
687.04	-20.34
687.37	-1.94
687.69	15.17
688.02	11.30
688.34	17.11
688.67	10.33
688.99	-12.27
689.31	-5.49
689.64	-3.55
689.96	-4.52
690.28	23.89
690.61	26.80
690.93	56.17
691.26	65.86
691.58	51.33
691.90	37.45
692.23	20.98
692.55	6.46
692.87	17.11
693.20	3.55
693.52	-1.61
693.84	-8.07
694.17	0.65
694.49	-1.61
694.81	-5.81
695.14	-27.12
695.46	-27.76
695.78	-19.05
696.11	-16.46
696.43	-15.50
696.75	-10.01
697.08	-25.18
697.40	-27.44
697.72	-24.54
698.04	-18.40
698.37	-12.59
698.69	-19.69
699.01	-17.43
699.33	2.91
699.66	7.43
699.98	-4.20
700.30	0.65
700.62	-1.29
700.95	1.29
701.27	8.72
701.59	7.75
701.91	7.75
702.24	10.65
702.56	0.97
702.88	14.53
703.20	21.31
703.52	14.53
703.85	-5.17
704.17	-3.23
704.49	-3.55
704.81	-8.07
705.13	-17.76
705.45	-11.94
705.78	-24.86
706.10	-23.24
706.42	-30.02
706.74	-18.72
707.06	-19.69
707.38	0.00
707.71	-11.94
708.03	-12.91
708.35	-0.65
708.67	-5.17
708.99	-21.63
709.31	-20.98
709.63	-37.13
709.95	-38.09
710.27	-31.64
710.60	-23.89
710.92	-14.85
711.24	-14.20
711.56	-19.69
711.88	-22.92
712.20	-27.44
712.52	-21.63
712.84	-34.87
713.16	-24.21
713.48	-22.60
713.80	-12.27
714.12	-19.69
714.44	-12.27
714.76	0.00
715.08	8.07
715.40	-2.91
715.72	-11.30
716.04	-23.24
716.36	-10.01
716.68	-5.81
717.00	-8.39
717.32	-4.84
717.64	10.65
717.96	18.72
718.28	38.09
718.60	43.26
718.92	49.39
719.24	30.99
719.56	28.41
719.88	8.72
720.20	15.50
720.52	15.50
720.84	-2.91
721.16	0.65
721.48	36.16
721.80	30.02
722.12	42.29
722.44	33.25
722.76	20.98
723.08	14.53
723.40	4.20
723.72	-11.94
724.03	-8.72
724.35	-5.49
724.67	9.36
724.99	12.59
725.31	34.22
725.63	34.87
725.95	18.08
726.27	14.20
726.58	-5.81
726.90	-6.46
727.22	6.13
727.54	-10.98
727.86	-18.08
728.18	-4.84
728.50	-8.07
728.81	6.46
729.13	-0.97
729.45	-1.29
729.77	22.28
730.09	38.09
730.40	21.63
730.72	27.76
731.04	15.17
731.36	18.72
731.68	15.82
731.99	0.65
732.31	-8.07
732.63	-2.91
732.95	-6.13
733.27	6.46
733.58	10.01
733.90	-7.75
734.22	-13.24
734.54	-7.43
734.85	-7.10
735.17	-1.29
735.49	-9.68
735.80	-19.05
736.12	-11.94
736.44	-12.27
736.76	-36.80
737.07	-29.70
737.39	-30.67
737.71	-30.99
738.02	-18.08
738.34	-23.57
738.66	-26.47
738.97	-21.95
739.29	-25.83
739.61	-23.24
739.93	-8.72
740.24	-31.64
740.56	-22.92
740.87	-12.59
741.19	-12.91
741.51	-15.50
741.82	-15.50
742.14	-20.66
742.46	-14.53
742.77	-26.15
743.09	-16.46
743.41	-25.18
743.72	-27.44
744.04	-46.17
744.35	-52.62
744.67	-59.40
744.99	-56.50
745.30	-75.22
745.62	-49.72
745.93	-36.80
746.25	-33.57
746.56	-28.09
746.88	-14.20
747.20	5.17
747.51	17.11
747.83	18.40
748.14	22.92
748.46	33.90
748.77	17.43
749.09	18.08
749.40	21.63
749.72	30.67
750.03	21.31
750.35	9.36
750.66	11.94
750.98	37.13
751.29	45.52
751.61	49.07
751.92	37.13
752.24	22.60
752.55	17.11
752.87	9.36
753.18	-3.55
753.50	-15.17
753.81	-20.34
754.13	-25.18
754.44	-8.39
754.76	-4.52
755.07	6.13
755.38	5.49
755.70	-10.33
756.01	-28.73
756.33	-16.79
756.64	-23.57
756.95	-29.38
757.27	-44.87
757.58	-27.44
757.90	-1.29
758.21	3.23
758.52	2.26
758.84	-1.29
759.15	7.43
759.47	43.91
759.78	46.81
760.09	36.48
760.41	52.62
760.72	58.11
761.03	67.79
761.35	55.20
761.66	21.95
761.97	5.81
762.29	-2.58
762.60	-18.72
762.91	-29.38
763.23	-22.60
763.54	-13.56
763.85	4.20
764.17	3.55
764.48	20.02
764.79	12.27
765.10	3.87
765.42	3.23
765.73	0.97
766.04	-20.34
766.36	-13.88
766.67	-31.64
766.98	-19.69
767.29	-22.92
767.61	-23.24
767.92	-10.98
768.23	-4.84
768.54	-19.05
768.86	-6.78
769.17	-6.78
769.48	5.49
769.79	7.10
770.10	-7.75
770.42	-12.59
770.73	-6.46
771.04	-11.30
771.35	-23.24
771.66	-15.50
771.98	-30.35
772.29	-27.12
772.60	-23.57
772.91	-23.57
773.22	-11.94
773.53	3.55
773.85	7.10
774.16	10.98
774.47	15.50
774.78	16.46
775.09	30.02
775.40	12.27
775.71	0.97
776.02	-10.01
776.34	4.52
776.65	10.33
776.96	26.47
777.27	16.46
777.58	32.61
777.89	36.80
778.20	27.12
778.51	9.04
778.82	6.13
779.13	-1.29
779.44	14.20
779.75	9.04
780.06	5.81
780.38	10.98
780.69	21.63
781.00	11.62
781.31	5.81
781.62	-13.24
781.93	-10.65
782.24	-10.98
782.55	6.46
782.86	3.87
783.17	13.24
783.48	19.05
783.79	28.41
784.10	26.47
784.41	22.92
784.72	9.36
785.03	2.91
785.34	8.72
785.65	-0.65
785.96	-7.43
786.27	-14.53
786.57	-12.59
786.88	-11.62
787.19	-13.88
787.50	-32.61
787.81	-39.06
788.12	-37.77
788.43	-8.39
788.74	4.52
789.05	-0.97
789.36	3.87
789.67	15.82
789.98	32.61
790.29	35.19
790.59	-0.32
790.90	-16.46
791.21	-12.27
791.52	2.58
791.83	-9.68
792.14	-11.30
792.45	-8.07
792.75	-4.20
793.06	-4.52
793.37	-4.20
793.68	-21.95
793.99	-26.15
794.30	-33.25
794.60	-33.25
794.91	-19.69
795.22	1.94
795.53	-10.65
795.84	-8.39
796.15	9.68
796.45	6.46
796.76	3.87
797.07	-9.04
797.38	-26.15
797.68	-20.98
797.99	-15.82
798.30	-10.65
798.61	-5.81
798.91	-13.24
799.22	8.07
799.53	26.15
799.84	32.28
800.14	29.38
800.45	24.86
800.76	37.13
801.07	33.25
801.37	12.27
801.68	-22.60
801.99	-18.08
802.29	-6.13
802.60	-15.50
802.91	-23.57
803.22	-30.35
803.52	-18.40
803.83	-1.61
804.14	0.65
804.44	-11.94
804.75	-4.84
805.06	-2.26
805.36	6.13
805.67	-12.59
805.97	-8.72
806.28	-9.68
806.59	3.23
806.89	1.94
807.20	-8.07
807.51	11.94
807.81	33.90
808.12	27.44
808.42	12.59
808.73	3.23
809.04	6.13
809.34	13.24
809.65	4.20
809.95	-9.36
810.26	3.87
810.56	10.01
810.87	5.17
811.18	8.72
811.48	21.31
811.79	3.55
812.09	7.10
812.40	-5.49
812.70	1.94
813.01	5.81
813.31	-10.65
813.62	-20.98
813.92	-13.56
814.23	-28.41
814.53	-22.28
814.84	-7.43
815.14	-16.79
815.45	-10.01
815.75	-8.07
816.06	0.32
816.36	12.59
816.67	10.01
816.97	0.65
817.28	-1.61
817.58	6.46
817.89	-4.84
818.19	-12.59
818.49	-9.68
818.80	-1.29
819.10	-14.53
819.41	4.52
819.71	2.58
820.01	12.91
820.32	6.46
820.62	-3.55
820.93	-17.43
821.23	-7.75
821.53	-10.33
821.84	-12.59
822.14	-21.95
822.45	-17.11
822.75	2.26
823.05	16.46
823.36	29.05
823.66	18.72
823.96	15.50
824.27	23.89
824.57	27.44
824.87	16.79
825.18	14.85
825.48	-1.61
825.78	13.88
826.09	12.91
826.39	17.43
826.69	8.39
827.00	8.07
827.30	18.08
827.60	17.11
827.90	-0.97
828.21	17.43
828.51	8.07
828.81	4.84
829.11	19.69
829.42	-0.00
829.72	-16.46
830.02	-7.10
830.32	-27.44
830.63	-17.76
830.93	-14.85
831.23	-32.28
831.53	-23.24
831.84	-20.34
832.14	-10.33
832.44	8.39
832.74	0.00
833.04	3.87
833.35	0.32
833.65	-1.29
833.95	1.61
834.25	-22.28
834.55	-37.45
834.85	-36.48
835.16	-24.54
835.46	-12.27
835.76	-19.37
836.06	-4.52
836.36	5.17
836.66	17.43
836.96	20.98
837.26	11.94
837.57	6.13
837.87	-5.49
838.17	-10.01
838.47	-5.49
838.77	-13.88
839.07	-16.79
839.37	-16.46
839.67	-8.72
839.97	-3.87
840.27	-14.20
840.57	-24.86
840.88	-25.83
841.18	-20.66
841.48	-10.98
841.78	-22.28
842.08	-10.98
842.38	-0.32
842.68	20.34
842.98	20.66
843.28	25.18
843.58	10.33
843.88	23.89
844.18	27.44
844.48	31.64
844.78	20.34
845.08	28.73
845.38	15.82
845.68	14.20
845.98	6.46
846.28	-5.81
846.58	-9.36
846.88	-14.20
847.18	-15.82
847.48	-17.76
847.78	-10.65
848.07	-10.33
848.37	-1.61
848.67	-9.04
848.97	-2.58
849.27	-12.59
849.57	-3.55
849.87	3.55
850.17	-0.32
850.47	0.32
850.77	-7.75
851.07	-24.54
851.36	-18.40
851.66	-28.73
851.96	-41.97
852.26	-41.97
852.56	-30.67
852.86	-17.11
853.16	-13.24
853.45	-32.93
853.75	-24.21
854.05	-22.60
854.35	-21.63
854.65	-35.19
854.95	-47.46
855.24	-43.58
855.54	-8.72
855.84	1.29
856.14	5.49
856.44	19.05
856.73	35.51
857.03	62.95
857.33	77.48
857.63	51.65
857.93	52.62
858.22	51.98
858.52	32.61
858.82	14.53
859.12	3.23
859.41	1.29
859.71	18.72
860.01	10.65
860.30	25.83
860.60	24.86
860.90	18.72
861.20	20.02
861.49	13.88
861.79	6.13
862.09	-5.81
862.38	-31.64
862.68	-35.51
862.98	-14.85
863.27	-29.70
863.57	-17.11
863.87	-20.34
864.16	-20.02
864.46	-3.23
864.76	0.32
865.05	-14.20
865.35	-9.68
865.65	-20.66
865.94	-5.81
866.24	-11.94
866.54	-11.30
866.83	-1.29
867.13	9.36
867.42	14.20
867.72	6.46
868.02	-13.56
868.31	-14.85
868.61	-21.63
868.90	-25.50
869.20	-24.86
869.49	-23.24
869.79	-20.02
870.08	-6.13
870.38	7.75
870.68	30.99
870.97	38.09
871.27	32.61
871.56	11.94
871.86	20.66
872.15	10.65
872.45	6.13
872.74	-4.84
873.04	-13.88
873.33	-13.88
873.63	-7.10
873.92	-14.20
874.22	-19.37
874.51	0.32
874.81	0.65
875.10	-4.84
875.40	-4.84
875.69	10.65
875.98	13.56
876.28	39.39
876.57	16.46
876.87	0.97
877.16	3.55
877.46	3.23
877.75	11.94
878.04	20.02
878.34	0.65
878.63	7.75
878.93	6.46
879.22	9.36
879.51	-7.10
879.81	-23.24
880.10	-36.48
880.40	-49.07
880.69	-51.98
880.98	-56.82
881.28	-45.52
881.57	-24.54
881.86	-14.53
882.16	-12.59
882.45	0.00
882.74	-3.87
883.04	12.59
883.33	9.36
883.62	-4.52
883.92	29.38
884.21	22.60
884.50	-61.02
>>>>>End Processed Spectral Data<<<<<
