SpectraSuite Data File
++++++++++++++++++++++++++++++++++++
Date: Fri Feb 20 12:14:14 EST 2015
User: Administrator
Dark Spectrum Present: Yes
Reference Spectrum Present: No
Number of Sampled Component Spectra: 1
Spectrometers: SB2+H01071
Integration Time (usec): 5000000 (SB2+H01071)
Spectra Averaged: 1 (SB2+H01071)
Boxcar Smoothing: 3 (SB2+H01071)
Correct for Electrical Dark: No (SB2+H01071)
Strobe/Lamp Enabled: Yes (SB2+H01071)
Correct for Detector Non-linearity: No (SB2+H01071)
Correct for Stray Light: No (SB2+H01071)
Number of Pixels in Processed Spectrum: 2048
>>>>>Begin Processed Spectral Data<<<<<
191.06	-42.94
191.43	-42.94
191.81	-42.94
192.19	-24.21
192.56	-23.57
192.94	-23.24
193.31	-26.47
193.69	-39.71
194.07	-38.09
194.44	-28.73
194.82	-15.50
195.19	-23.24
195.57	-26.47
195.95	-30.02
196.32	-21.95
196.70	-35.51
197.07	-58.43
197.45	-92.98
197.83	-71.99
198.20	-62.31
198.58	-51.98
198.95	-39.71
199.33	-23.57
199.70	-10.65
200.08	0.32
200.46	3.55
200.83	6.13
201.21	15.82
201.58	6.78
201.96	-5.81
202.33	12.27
202.71	26.15
203.09	10.98
203.46	0.32
203.84	-5.17
204.21	-10.33
204.59	2.58
204.96	-10.65
205.34	-12.27
205.71	6.13
206.09	8.72
206.46	10.33
206.84	24.86
207.21	14.85
207.59	29.70
207.96	17.11
208.34	1.61
208.71	4.20
209.09	-4.84
209.46	-20.98
209.84	-7.75
210.21	-15.50
210.59	-2.91
210.96	0.00
211.34	-2.58
211.71	3.23
212.09	18.72
212.46	7.43
212.84	-1.29
213.21	-20.02
213.59	-5.49
213.96	8.07
214.34	13.24
214.71	6.78
215.08	25.83
215.46	44.87
215.83	58.43
216.21	37.13
216.58	14.20
216.96	14.53
217.33	11.94
217.70	-4.84
218.08	-15.17
218.45	-29.05
218.83	-34.87
219.20	-28.73
219.58	-45.52
219.95	-52.94
220.32	-49.39
220.70	-48.75
221.07	-40.68
221.45	-34.54
221.82	-28.09
222.19	-2.91
222.57	3.55
222.94	2.26
223.32	3.23
223.69	13.88
224.06	16.14
224.44	11.94
224.81	-6.78
225.18	-8.07
225.56	-3.87
225.93	-5.49
226.31	-0.97
226.68	3.23
227.05	3.23
227.43	13.88
227.80	17.11
228.17	15.17
228.55	21.31
228.92	-5.49
229.29	-5.49
229.67	10.98
230.04	-3.55
230.41	-5.49
230.79	-13.88
231.16	-20.98
231.53	-9.04
231.91	-11.62
232.28	-28.09
232.65	-10.65
233.03	-17.43
233.40	4.52
233.77	7.75
234.15	17.76
234.52	16.46
234.89	27.12
235.26	20.02
235.64	33.25
236.01	4.20
236.38	21.31
236.76	17.76
237.13	13.24
237.50	10.98
237.87	6.13
238.25	18.40
238.62	27.76
238.99	15.17
239.36	12.91
239.74	24.86
240.11	21.31
240.48	24.86
240.85	15.17
241.23	15.82
241.60	5.81
241.97	10.98
242.34	0.00
242.72	-1.61
243.09	1.29
243.46	-13.24
243.83	-13.88
244.20	-14.20
244.58	-23.57
244.95	-8.07
245.32	-14.53
245.69	-20.66
246.07	-23.24
246.44	-20.66
246.81	-14.20
247.18	-15.50
247.55	-29.70
247.92	-14.53
248.30	-20.02
248.67	-14.20
249.04	-16.14
249.41	-8.07
249.78	-5.49
250.16	13.24
250.53	17.11
250.90	16.79
251.27	26.80
251.64	27.44
252.01	16.79
252.39	17.11
252.76	15.17
253.13	-2.91
253.50	-16.14
253.87	-21.95
254.24	-20.66
254.61	-18.72
254.98	-34.87
255.36	-46.17
255.73	-39.71
256.10	-19.69
256.47	-17.11
256.84	-9.04
257.21	-15.50
257.58	0.65
257.95	-4.84
258.33	12.27
258.70	16.79
259.07	18.40
259.44	18.72
259.81	33.90
260.18	35.19
260.55	41.32
260.92	12.27
261.29	0.32
261.66	-0.97
262.03	-9.36
262.40	-31.31
262.77	-27.12
263.15	-34.22
263.52	-29.70
263.89	-25.18
264.26	-19.05
264.63	-18.08
265.00	-14.53
265.37	-8.39
265.74	-0.65
266.11	5.17
266.48	1.94
266.85	-1.94
267.22	-0.97
267.59	3.23
267.96	0.65
268.33	1.61
268.70	14.20
269.07	29.38
269.44	30.35
269.81	34.87
270.18	42.29
270.55	22.60
270.92	18.08
271.29	18.40
271.66	4.52
272.03	4.20
272.40	-8.72
272.77	-19.05
273.14	4.84
273.51	14.20
273.88	-5.17
274.25	-3.87
274.62	-10.33
274.99	-2.58
275.36	14.20
275.73	12.91
276.10	15.50
276.47	19.37
276.84	31.96
277.21	39.06
277.58	28.09
277.94	27.12
278.31	18.72
278.68	25.83
279.05	14.85
279.42	10.33
279.79	1.61
280.16	-9.04
280.53	-17.11
280.90	-26.15
281.27	-53.59
281.64	-22.60
282.01	-20.66
282.37	-5.49
282.74	21.63
283.11	17.76
283.48	24.54
283.85	19.37
284.22	4.84
284.59	-14.20
284.96	-30.35
285.33	-20.66
285.69	-15.50
286.06	-25.83
286.43	-3.87
286.80	10.33
287.17	38.74
287.54	50.36
287.91	25.83
288.27	26.15
288.64	46.17
289.01	49.72
289.38	45.52
289.75	31.31
290.12	30.35
290.48	22.92
290.85	15.17
291.22	-1.94
291.59	-13.24
291.96	-30.99
292.33	-33.25
292.69	-40.68
293.06	-20.02
293.43	-17.11
293.80	-2.26
294.17	-4.52
294.53	2.58
294.90	6.13
295.27	12.91
295.64	16.79
296.01	31.96
296.37	16.79
296.74	28.73
297.11	25.18
297.48	15.82
297.84	9.04
298.21	8.72
298.58	-10.33
298.95	2.26
299.31	-14.20
299.68	5.81
300.05	15.50
300.42	15.17
300.78	1.61
301.15	7.43
301.52	-3.87
301.89	12.27
302.25	-4.52
302.62	-8.39
302.99	-2.58
303.35	-14.85
303.72	-27.44
304.09	-26.47
304.46	-34.54
304.82	-36.80
305.19	-30.67
305.56	-39.06
305.92	-16.79
306.29	10.33
306.66	19.69
307.02	-0.00
307.39	-9.36
307.76	2.91
308.12	14.85
308.49	0.65
308.86	-16.79
309.23	-25.50
309.59	-2.91
309.96	1.29
310.32	-5.49
310.69	-25.50
311.06	-8.39
311.42	-8.07
311.79	-16.46
312.16	-34.54
312.52	-18.08
312.89	-29.05
313.26	-21.31
313.62	-19.05
313.99	-13.24
314.35	0.97
314.72	42.29
315.09	43.58
315.45	47.46
315.82	49.07
316.19	36.16
316.55	25.83
316.92	23.89
317.28	-3.55
317.65	-11.62
318.02	-17.11
318.38	-26.80
318.75	-30.99
319.11	-36.48
319.48	-31.96
319.84	-20.66
320.21	-29.70
320.58	-22.28
320.94	20.02
321.31	13.88
321.67	26.15
322.04	27.44
322.40	10.01
322.77	20.34
323.13	21.63
323.50	-5.81
323.86	-2.26
324.23	4.20
324.60	9.68
324.96	22.60
325.33	5.81
325.69	0.97
326.06	1.61
326.42	-2.58
326.79	-10.98
327.15	-19.69
327.52	-37.77
327.88	-16.14
328.25	-12.27
328.61	-13.88
328.98	10.01
329.34	7.10
329.71	-7.43
330.07	1.94
330.44	-13.88
330.80	-23.57
331.16	-29.38
331.53	-39.06
331.89	-26.15
332.26	5.81
332.62	21.31
332.99	38.42
333.35	48.10
333.72	63.28
334.08	69.09
334.45	51.65
334.81	46.49
335.17	22.60
335.54	14.85
335.90	1.61
336.27	-25.18
336.63	-25.50
337.00	-9.68
337.36	-16.14
337.72	-10.33
338.09	-14.20
338.45	-7.10
338.82	5.81
339.18	0.65
339.54	9.04
339.91	12.27
340.27	18.08
340.63	19.37
341.00	11.30
341.36	23.89
341.73	8.39
342.09	-5.81
342.45	-6.46
342.82	4.84
343.18	3.55
343.54	28.73
343.91	32.93
344.27	54.56
344.63	62.31
345.00	57.46
345.36	46.81
345.72	48.75
346.09	34.22
346.45	31.96
346.81	17.43
347.18	14.53
347.54	14.85
347.90	8.39
348.27	3.87
348.63	-1.29
348.99	-16.79
349.36	-10.98
349.72	-11.30
350.08	-12.27
350.45	-24.54
350.81	-15.50
351.17	-12.59
351.53	-9.04
351.90	-0.97
352.26	-3.87
352.62	-6.13
352.98	3.23
353.35	7.43
353.71	5.17
354.07	8.72
354.44	-11.30
354.80	-6.46
355.16	-5.49
355.52	2.58
355.88	-18.40
356.25	-12.59
356.61	-34.54
356.97	-30.02
357.33	-40.03
357.70	-32.61
358.06	-29.38
358.42	-26.47
358.78	-43.91
359.15	-33.57
359.51	-19.37
359.87	-36.48
360.23	-48.10
360.59	-52.30
360.95	-45.52
361.32	-27.12
361.68	-25.18
362.04	-54.24
362.40	-39.39
362.76	-34.87
363.13	-36.48
363.49	-33.90
363.85	-28.73
364.21	-45.20
364.57	-17.43
364.93	-5.17
365.30	4.84
365.66	9.36
366.02	17.43
366.38	8.72
366.74	37.45
367.10	36.48
367.46	38.74
367.83	19.69
368.19	23.89
368.55	13.56
368.91	2.58
369.27	-10.01
369.63	-11.94
369.99	-14.20
370.35	-4.20
370.71	-11.94
371.08	-0.65
371.44	6.46
371.80	15.17
372.16	17.43
372.52	11.30
372.88	16.79
373.24	17.11
373.60	9.04
373.96	13.56
374.32	17.76
374.68	17.76
375.04	14.20
375.40	6.78
375.76	11.30
376.13	12.59
376.49	15.82
376.85	17.11
377.21	16.46
377.57	20.98
377.93	24.21
378.29	26.80
378.65	44.23
379.01	49.07
379.37	35.51
379.73	32.28
380.09	39.06
380.45	37.45
380.81	29.05
381.17	18.72
381.53	9.04
381.89	10.65
382.25	18.72
382.61	10.98
382.97	2.91
383.33	-10.01
383.69	-17.11
384.05	-10.01
384.41	-0.65
384.77	0.00
385.13	7.10
385.49	7.43
385.85	15.82
386.20	27.44
386.56	11.30
386.92	0.32
387.28	-7.43
387.64	-9.04
388.00	-12.91
388.36	6.46
388.72	-13.88
389.08	-20.02
389.44	-8.72
389.80	-20.02
390.16	-30.99
390.52	-14.53
390.88	-31.96
391.23	-17.11
391.59	8.72
391.95	3.23
392.31	12.59
392.67	-3.55
393.03	-6.46
393.39	-15.50
393.75	-27.44
394.11	-45.20
394.46	-31.96
394.82	-17.76
395.18	7.10
395.54	3.55
395.90	22.60
396.26	26.15
396.62	26.47
396.97	11.94
397.33	-9.68
397.69	-28.09
398.05	-45.52
398.41	-37.45
398.77	-33.90
399.12	-15.50
399.48	-14.53
399.84	-2.91
400.20	2.58
400.56	23.24
400.91	16.46
401.27	-4.20
401.63	-12.91
401.99	-12.27
402.35	-16.79
402.70	-25.18
403.06	-25.18
403.42	-20.34
403.78	8.07
404.14	7.75
404.49	9.36
404.85	4.52
405.21	18.08
405.57	5.81
405.92	1.61
406.28	1.29
406.64	-2.26
407.00	-3.55
407.35	8.39
407.71	14.20
408.07	32.28
408.43	21.31
408.78	4.84
409.14	12.27
409.50	19.05
409.85	24.54
410.21	27.44
410.57	14.53
410.93	20.66
411.28	41.97
411.64	40.35
412.00	33.90
412.35	21.95
412.71	25.83
413.07	17.76
413.42	4.84
413.78	-7.43
414.14	-3.87
414.49	-16.14
414.85	4.20
415.21	-1.29
415.56	9.36
415.92	32.93
416.28	39.39
416.63	34.22
416.99	50.68
417.35	10.33
417.70	9.36
418.06	0.65
418.42	-3.55
418.77	-10.33
419.13	-10.98
419.48	-11.30
419.84	-3.55
420.20	-0.65
420.55	0.65
420.91	7.75
421.27	21.95
421.62	30.67
421.98	31.96
422.33	46.17
422.69	46.81
423.05	50.04
423.40	34.54
423.76	14.20
424.11	-0.32
424.47	-9.68
424.82	-1.61
425.18	-14.85
425.54	-9.68
425.89	-21.95
426.25	-5.81
426.60	-9.36
426.96	-12.91
427.31	-26.80
427.67	-23.57
428.02	-13.88
428.38	1.61
428.73	-0.97
429.09	6.46
429.44	13.24
429.80	14.53
430.15	28.41
430.51	24.21
430.86	20.98
431.22	11.94
431.57	-2.58
431.93	-2.91
432.28	10.01
432.64	-6.13
432.99	-1.94
433.35	6.78
433.70	-14.53
434.06	2.58
434.41	-9.04
434.77	-14.85
435.12	-7.10
435.48	-27.44
435.83	-20.66
436.19	-0.32
436.54	1.61
436.89	16.79
437.25	15.50
437.60	0.65
437.96	14.20
438.31	2.26
438.67	1.61
439.02	4.20
439.37	2.26
439.73	1.29
440.08	29.70
440.44	28.09
440.79	22.28
441.15	12.59
441.50	18.08
441.85	2.26
442.21	-2.58
442.56	-23.89
442.91	-34.54
443.27	-42.61
443.62	-38.74
443.98	-51.65
444.33	-48.42
444.68	-50.36
445.04	-35.83
445.39	-27.12
445.74	-27.76
446.10	-15.50
446.45	-28.09
446.80	-6.13
447.16	-10.98
447.51	-20.02
447.86	-14.20
448.22	-3.23
448.57	-14.53
448.92	-4.20
449.28	-18.08
449.63	-5.49
449.98	-15.82
450.34	-20.02
450.69	-18.72
451.04	-10.98
451.40	-1.94
451.75	-8.39
452.10	-6.46
452.45	8.39
452.81	12.27
453.16	1.29
453.51	2.58
453.86	-10.33
454.22	-1.61
454.57	-14.53
454.92	-21.63
455.27	-33.90
455.63	-24.54
455.98	-31.31
456.33	-32.93
456.68	-51.33
457.04	-48.75
457.39	-44.87
457.74	-37.45
458.09	-52.30
458.45	-49.07
458.80	-47.46
459.15	-23.24
459.50	-22.92
459.85	-31.31
460.21	-28.09
460.56	-10.65
460.91	-1.29
461.26	-2.26
461.61	-18.72
461.97	-18.08
462.32	-10.01
462.67	-18.08
463.02	-7.10
463.37	-12.59
463.72	-2.58
464.08	-9.68
464.43	-11.62
464.78	0.97
465.13	1.29
465.48	-0.32
465.83	5.49
466.18	7.75
466.54	33.25
466.89	34.87
467.24	28.73
467.59	36.80
467.94	24.86
468.29	16.46
468.64	14.20
468.99	10.33
469.34	10.98
469.70	-7.43
470.05	-13.24
470.40	-23.89
470.75	-34.54
471.10	-30.35
471.45	-47.13
471.80	-45.20
472.15	-31.31
472.50	-30.02
472.85	-13.56
473.20	-2.91
473.55	-14.20
473.90	-1.94
474.25	-0.65
474.61	-0.97
474.96	-8.07
475.31	-20.98
475.66	-19.69
476.01	-6.78
476.36	-0.97
476.71	9.36
477.06	20.34
477.41	44.23
477.76	50.68
478.11	47.46
478.46	37.13
478.81	34.54
479.16	21.63
479.51	4.20
479.86	-11.62
480.21	3.55
480.56	-2.26
480.91	0.97
481.26	-5.49
481.61	5.49
481.96	23.24
482.31	8.72
482.66	-14.85
483.00	-4.20
483.35	1.94
483.70	-8.39
484.05	-27.12
484.40	-49.07
484.75	-30.67
485.10	-20.66
485.45	-22.92
485.80	-30.67
486.15	-14.85
486.50	-10.65
486.85	-6.46
487.20	-18.40
487.55	-27.76
487.89	-39.06
488.24	-35.51
488.59	-21.63
488.94	-24.21
489.29	-20.66
489.64	-13.56
489.99	-3.23
490.34	9.68
490.68	6.13
491.03	-8.07
491.38	9.04
491.73	10.33
492.08	7.10
492.43	6.78
492.78	5.49
493.12	6.46
493.47	10.98
493.82	-6.46
494.17	-2.26
494.52	1.94
494.87	-5.81
495.21	-19.69
495.56	-13.56
495.91	-3.55
496.26	13.88
496.61	26.15
496.95	28.73
497.30	41.00
497.65	58.76
498.00	44.23
498.35	32.93
498.69	23.57
499.04	-9.04
499.39	-15.17
499.74	-13.56
500.08	-17.76
500.43	1.61
500.78	-10.01
501.13	-29.38
501.48	-20.66
501.82	-9.04
502.17	-19.37
502.52	-14.85
502.86	-28.41
503.21	-23.89
503.56	-2.58
503.91	0.65
504.25	-12.91
504.60	-13.24
504.95	-9.36
505.30	-10.65
505.64	-6.13
505.99	-6.78
506.34	-3.87
506.68	-0.97
507.03	-0.32
507.38	0.32
507.72	7.10
508.07	-10.33
508.42	-1.29
508.76	-18.08
509.11	-15.17
509.46	1.61
509.80	-6.78
510.15	-16.79
510.50	4.20
510.84	9.36
511.19	31.31
511.54	26.15
511.88	8.72
512.23	14.85
512.57	29.05
512.92	19.37
513.27	7.43
513.61	14.85
513.96	12.59
514.31	26.80
514.65	11.94
515.00	-12.91
515.34	-6.46
515.69	-11.94
516.03	-15.17
516.38	-19.05
516.73	-34.54
517.07	-33.57
517.42	-18.40
517.76	-13.88
518.11	-0.32
518.45	-17.76
518.80	-8.07
519.15	-2.91
519.49	11.62
519.84	19.69
520.18	-4.20
520.53	-30.99
520.87	-28.09
521.22	-20.02
521.56	-11.94
521.91	-16.79
522.25	-22.60
522.60	-3.55
522.94	18.40
523.29	24.21
523.63	16.79
523.98	0.65
524.32	0.32
524.67	-4.84
525.01	-4.84
525.36	-15.82
525.70	-15.50
526.05	-8.07
526.39	2.26
526.74	1.94
527.08	12.59
527.43	1.29
527.77	10.01
528.12	3.87
528.46	9.04
528.80	0.97
529.15	-1.94
529.49	-0.65
529.84	14.53
530.18	14.20
530.53	5.81
530.87	-6.46
531.21	-1.29
531.56	1.29
531.90	-8.07
532.25	-13.56
532.59	-8.07
532.93	12.91
533.28	24.86
533.62	29.70
533.97	23.89
534.31	24.21
534.65	19.05
535.00	22.60
535.34	15.50
535.68	17.76
536.03	11.62
536.37	21.95
536.71	27.12
537.06	35.19
537.40	18.08
537.74	18.72
538.09	-4.84
538.43	-8.39
538.77	-21.63
539.12	-11.94
539.46	-14.85
539.80	-14.20
540.15	-18.08
540.49	11.94
540.83	25.18
541.18	38.42
541.52	26.80
541.86	32.93
542.20	34.87
542.55	33.57
542.89	19.05
543.23	1.61
543.58	-15.82
543.92	-16.79
544.26	-12.59
544.60	-16.79
544.95	-4.84
545.29	-28.41
545.63	-31.64
545.97	-21.31
546.32	-40.35
546.66	-49.07
547.00	-22.60
547.34	-19.05
547.68	7.75
548.03	10.65
548.37	1.61
548.71	25.18
549.05	16.14
549.39	9.68
549.74	-10.65
550.08	-32.61
550.42	-35.19
550.76	-21.63
551.10	-40.03
551.45	-27.44
551.79	-35.19
552.13	-38.74
552.47	-21.63
552.81	-9.04
553.15	-5.49
553.50	13.88
553.84	15.17
554.18	23.57
554.52	46.17
554.86	34.87
555.20	38.09
555.54	34.87
555.88	17.11
556.23	-7.75
556.57	-24.21
556.91	-37.77
557.25	-21.31
557.59	-30.99
557.93	-27.12
558.27	-16.14
558.61	10.98
558.95	15.50
559.29	25.83
559.64	12.27
559.98	-16.14
560.32	-35.83
560.66	-36.80
561.00	-45.84
561.34	-57.79
561.68	-61.66
562.02	-65.53
562.36	-27.44
562.70	-16.14
563.04	-3.55
563.38	-9.04
563.72	-5.17
564.06	-0.97
564.40	13.88
564.74	6.46
565.08	-5.17
565.42	-19.05
565.76	-6.46
566.10	0.32
566.44	1.94
566.78	-4.52
567.12	2.58
567.46	24.86
567.80	30.35
568.14	22.28
568.48	29.70
568.82	11.62
569.16	-1.94
569.50	-3.23
569.84	-14.85
570.18	0.65
570.52	10.01
570.86	10.65
571.20	20.34
571.54	25.18
571.88	18.40
572.22	17.76
572.55	6.13
572.89	7.10
573.23	20.66
573.57	14.20
573.91	22.60
574.25	27.44
574.59	20.02
574.93	17.43
575.27	10.01
575.61	-10.01
575.94	-8.07
576.28	-5.81
576.62	-9.36
576.96	1.61
577.30	14.20
577.64	25.50
577.98	29.05
578.32	46.49
578.65	49.72
578.99	52.94
579.33	53.59
579.67	41.00
580.01	33.90
580.35	35.19
580.68	17.11
581.02	17.43
581.36	19.05
581.70	1.29
582.04	-1.94
582.37	-10.33
582.71	-17.43
583.05	-8.07
583.39	-25.83
583.73	-37.77
584.06	-32.61
584.40	-30.02
584.74	-27.76
585.08	-36.80
585.41	-33.57
585.75	-20.34
586.09	-4.20
586.43	-5.81
586.76	-14.20
587.10	-20.34
587.44	-14.20
587.78	-23.57
588.11	-31.96
588.45	-40.35
588.79	-46.49
589.13	-33.25
589.46	-35.83
589.80	-24.21
590.14	-21.63
590.47	-35.51
590.81	-42.29
591.15	-27.44
591.48	-37.45
591.82	-30.99
592.16	-55.85
592.50	-49.72
592.83	-33.25
593.17	-16.46
593.51	-17.43
593.84	-25.50
594.18	-14.85
594.51	10.65
594.85	16.14
595.19	14.20
595.52	12.27
595.86	11.94
596.20	35.19
596.53	42.29
596.87	41.00
597.21	24.54
597.54	39.39
597.88	33.25
598.21	29.70
598.55	36.80
598.89	24.54
599.22	25.83
599.56	32.93
599.89	28.09
600.23	27.12
600.57	41.65
600.90	15.50
601.24	17.76
601.57	3.87
601.91	-9.68
602.24	-3.55
602.58	-4.84
602.91	-22.92
603.25	-7.10
603.58	-10.98
603.92	0.97
604.26	23.24
604.59	-0.65
604.93	3.87
605.26	17.76
605.60	18.40
605.93	22.28
606.27	13.88
606.60	5.49
606.94	19.37
607.27	29.05
607.61	22.92
607.94	16.46
608.28	16.46
608.61	24.86
608.95	18.40
609.28	30.67
609.61	15.17
609.95	35.51
610.28	38.42
610.62	25.50
610.95	19.05
611.29	27.12
611.62	1.61
611.96	3.87
612.29	-10.01
612.62	-16.14
612.96	-14.20
613.29	-7.43
613.63	-3.87
613.96	15.17
614.29	20.66
614.63	10.65
614.96	8.07
615.30	0.32
615.63	-1.29
615.96	-15.17
616.30	-13.56
616.63	-14.85
616.97	-0.97
617.30	20.66
617.63	29.38
617.97	38.74
618.30	32.61
618.63	26.15
618.97	19.37
619.30	15.82
619.63	-12.91
619.97	-4.84
620.30	-7.10
620.63	14.53
620.97	11.62
621.30	15.50
621.63	5.81
621.97	22.92
622.30	34.22
622.63	22.28
622.96	15.50
623.30	6.46
623.63	10.01
623.96	20.98
624.30	16.79
624.63	11.62
624.96	6.46
625.29	-0.00
625.63	0.97
625.96	9.68
626.29	4.84
626.62	-1.29
626.96	-15.17
627.29	-5.17
627.62	-0.65
627.95	7.10
628.28	5.17
628.62	19.37
628.95	14.85
629.28	9.36
629.61	8.39
629.95	-4.52
630.28	1.61
630.61	1.29
630.94	-4.20
631.27	-12.59
631.60	2.91
631.94	9.68
632.27	24.86
632.60	31.64
632.93	18.40
633.26	7.43
633.59	26.47
633.93	28.09
634.26	28.73
634.59	16.46
634.92	4.20
635.25	7.75
635.58	7.10
635.91	1.29
636.24	-2.58
636.58	-9.36
636.91	-3.23
637.24	-5.81
637.57	-13.24
637.90	1.29
638.23	-0.65
638.56	-8.39
638.89	-18.08
639.22	-13.88
639.55	-12.59
639.88	2.58
640.22	-7.75
640.55	-7.75
640.88	0.97
641.21	-4.84
641.54	-10.01
641.87	-1.94
642.20	-14.20
642.53	-18.40
642.86	-9.36
643.19	-8.72
643.52	-3.55
643.85	-9.04
644.18	-9.04
644.51	-21.31
644.84	-24.21
645.17	-46.17
645.50	-71.02
645.83	-70.05
646.16	-47.78
646.49	-59.72
646.82	-40.03
647.15	-33.25
647.48	-27.44
647.81	-15.17
648.14	-6.13
648.47	-19.37
648.80	-15.50
649.13	-28.41
649.46	-32.61
649.79	-22.60
650.11	-5.49
650.44	-10.01
650.77	-17.76
651.10	-15.17
651.43	4.20
651.76	-5.17
652.09	-5.49
652.42	-18.40
652.75	-14.53
653.08	-6.13
653.41	7.43
653.73	-5.81
654.06	1.61
654.39	7.75
654.72	19.37
655.05	15.50
655.38	19.37
655.71	19.69
656.04	26.80
656.36	34.54
656.69	30.99
657.02	23.89
657.35	5.81
657.68	-3.55
658.01	-15.50
658.33	-10.33
658.66	-20.02
658.99	-17.11
659.32	-19.05
659.65	2.26
659.97	-5.17
660.30	-7.10
660.63	-12.91
660.96	2.58
661.29	-4.20
661.61	-5.17
661.94	-12.91
662.27	10.33
662.60	11.30
662.92	8.07
663.25	-4.52
663.58	3.23
663.91	-3.23
664.23	-4.84
664.56	3.87
664.89	12.27
665.22	-0.97
665.54	9.04
665.87	-3.55
666.20	-1.94
666.53	4.84
666.85	-25.18
667.18	-25.50
667.51	0.97
667.83	-23.57
668.16	-18.40
668.49	-5.81
668.81	-11.30
669.14	-1.94
669.47	5.17
669.79	-10.01
670.12	0.97
670.45	0.97
670.77	-17.11
671.10	-20.98
671.43	-22.28
671.75	-40.68
672.08	-48.10
672.41	-51.65
672.73	-59.08
673.06	-51.65
673.39	-35.19
673.71	-30.35
674.04	-20.66
674.36	-13.56
674.69	-2.58
675.02	13.56
675.34	16.79
675.67	5.17
675.99	7.43
676.32	7.10
676.64	4.20
676.97	10.33
677.30	10.33
677.62	7.75
677.95	9.04
678.27	-12.91
678.60	-14.20
678.92	4.52
679.25	-11.62
679.57	-23.24
679.90	-29.05
680.22	-6.78
680.55	12.59
680.88	4.84
681.20	-4.52
681.53	1.29
681.85	16.14
682.18	27.44
682.50	3.87
682.83	0.97
683.15	2.26
683.47	-1.94
683.80	-3.87
684.12	-18.08
684.45	-16.79
684.77	-5.81
685.10	-20.02
685.42	-24.21
685.75	-20.98
686.07	-31.96
686.40	-21.63
686.72	-25.18
687.04	-23.89
687.37	-6.78
687.69	17.76
688.02	19.05
688.34	29.05
688.67	14.53
688.99	16.46
689.31	2.91
689.64	-1.29
689.96	-15.82
690.28	-15.17
690.61	10.98
690.93	31.31
691.26	42.61
691.58	26.47
691.90	22.92
692.23	8.39
692.55	8.39
692.87	2.26
693.20	-14.85
693.52	-36.80
693.84	-17.76
694.17	-17.76
694.49	-10.01
694.81	-11.62
695.14	-19.69
695.46	-11.30
695.78	-4.52
696.11	-12.91
696.43	-6.78
696.75	-10.98
697.08	-21.95
697.40	-36.16
697.72	-39.39
698.04	-34.54
698.37	-25.18
698.69	-39.71
699.01	-28.41
699.33	-13.88
699.66	-5.81
699.98	4.52
700.30	7.10
700.62	8.07
700.95	19.05
701.27	16.14
701.59	12.59
701.91	7.43
702.24	-13.56
702.56	-20.34
702.88	-16.46
703.20	0.00
703.52	-6.78
703.85	-9.36
704.17	1.61
704.49	11.62
704.81	7.75
705.13	0.97
705.45	-11.30
705.78	-2.91
706.10	-9.36
706.42	-20.02
706.74	-10.98
707.06	3.87
707.38	6.78
707.71	15.82
708.03	17.43
708.35	19.69
708.67	16.79
708.99	3.55
709.31	-8.72
709.63	-0.00
709.95	-13.24
710.27	-12.27
710.60	4.52
710.92	-4.20
711.24	-1.94
711.56	-2.91
711.88	-19.37
712.20	-25.83
712.52	-34.87
712.84	-40.68
713.16	-26.15
713.48	-30.67
713.80	-19.69
714.12	-17.11
714.44	-8.72
714.76	8.72
715.08	0.65
715.40	0.97
715.72	5.17
716.04	-4.84
716.36	-5.81
716.68	8.39
717.00	5.49
717.32	5.49
717.64	16.46
717.96	9.04
718.28	21.31
718.60	36.48
718.92	32.28
719.24	7.43
719.56	12.59
719.88	-0.32
720.20	-4.84
720.52	-2.91
720.84	-31.64
721.16	-26.80
721.48	-2.26
721.80	-13.56
722.12	-10.01
722.44	0.97
722.76	-21.63
723.08	-20.98
723.40	-43.26
723.72	-56.82
724.03	-50.68
724.35	-39.39
724.67	-32.61
724.99	-13.88
725.31	6.13
725.63	28.73
725.95	17.76
726.27	2.91
726.58	-14.20
726.90	-1.94
727.22	4.84
727.54	-1.61
727.86	-18.08
728.18	5.17
728.50	11.62
728.81	33.57
729.13	18.40
729.45	1.61
729.77	-7.10
730.09	7.75
730.40	-11.62
730.72	2.26
731.04	-24.86
731.36	-9.04
731.68	10.33
731.99	20.66
732.31	14.20
732.63	22.28
732.95	16.79
733.27	28.41
733.58	23.24
733.90	8.39
734.22	10.33
734.54	14.85
734.85	-1.94
735.17	2.26
735.49	11.94
735.80	-1.94
736.12	-2.26
736.44	-11.62
736.76	-23.57
737.07	-1.29
737.39	-1.29
737.71	-14.85
738.02	-1.61
738.34	-2.58
738.66	3.87
738.97	4.20
739.29	-2.91
739.61	-1.61
739.93	9.04
740.24	-3.87
740.56	-1.61
740.87	-0.65
741.19	0.32
741.51	4.52
741.82	-2.91
742.14	0.97
742.46	1.94
742.77	-6.13
743.09	11.62
743.41	13.56
743.72	3.55
744.04	-8.72
744.35	-20.34
744.67	-14.53
744.99	-8.39
745.30	-28.73
745.62	-12.91
745.93	1.29
746.25	0.97
746.56	5.81
746.88	0.00
747.20	0.65
747.51	10.65
747.83	-6.78
748.14	-11.30
748.46	6.78
748.77	4.84
749.09	2.91
749.40	7.75
749.72	8.07
750.03	18.08
750.35	5.81
750.66	15.82
750.98	27.12
751.29	36.16
751.61	34.54
751.92	35.83
752.24	27.76
752.55	57.14
752.87	48.42
753.18	22.28
753.50	7.43
753.81	7.10
754.13	-4.52
754.44	-6.46
754.76	-21.95
755.07	-34.22
755.38	-30.67
755.70	-23.57
756.01	-27.44
756.33	-20.34
756.64	-25.83
756.95	-39.39
757.27	-32.28
757.58	-29.05
757.90	-18.40
758.21	-20.66
758.52	-24.21
758.84	-18.72
759.15	-2.91
759.47	16.79
759.78	25.83
760.09	36.16
760.41	45.20
760.72	57.14
761.03	56.17
761.35	20.34
761.66	-7.43
761.97	-11.62
762.29	-40.35
762.60	-44.87
762.91	-60.37
763.23	-53.27
763.54	-22.92
763.85	-1.94
764.17	1.61
764.48	25.18
764.79	19.37
765.10	26.80
765.42	36.16
765.73	35.83
766.04	29.38
766.36	28.73
766.67	6.13
766.98	16.14
767.29	2.26
767.61	-7.75
767.92	-1.29
768.23	-12.91
768.54	-20.66
768.86	-14.85
769.17	-14.85
769.48	5.49
769.79	13.24
770.10	7.43
770.42	3.23
770.73	16.14
771.04	23.24
771.35	13.88
771.66	1.61
771.98	-9.04
772.29	-10.98
772.60	-10.33
772.91	-7.75
773.22	-4.52
773.53	-8.07
773.85	10.65
774.16	3.87
774.47	2.26
774.78	20.34
775.09	18.72
775.40	13.88
775.71	26.80
776.02	17.43
776.34	30.99
776.65	43.58
776.96	42.94
777.27	29.70
777.58	29.70
777.89	24.21
778.20	5.81
778.51	-5.81
778.82	-6.13
779.13	-19.69
779.44	-8.07
779.75	4.20
780.06	5.17
780.38	29.05
780.69	38.09
781.00	21.31
781.31	32.28
781.62	30.35
781.93	22.28
782.24	11.62
782.55	-1.29
782.86	-7.43
783.17	0.97
783.48	-2.58
783.79	-9.04
784.10	-15.82
784.41	-3.23
784.72	-1.94
785.03	-3.87
785.34	-0.32
785.65	-8.07
785.96	-0.97
786.27	-6.13
786.57	-14.85
786.88	-16.14
787.19	-17.11
787.50	-27.12
787.81	-29.70
788.12	-42.29
788.43	-23.89
788.74	-13.88
789.05	-11.30
789.36	-0.32
789.67	9.36
789.98	26.15
790.29	34.87
790.59	29.05
790.90	37.13
791.21	27.76
791.52	21.63
791.83	14.20
792.14	10.98
792.45	8.39
792.75	-2.58
793.06	-19.69
793.37	-2.58
793.68	-17.11
793.99	-21.63
794.30	-36.80
794.60	-23.57
794.91	-7.43
795.22	-3.55
795.53	-15.17
795.84	6.46
796.15	15.82
796.45	24.21
796.76	23.24
797.07	20.98
797.38	16.14
797.68	6.13
797.99	-2.58
798.30	25.83
798.61	17.76
798.91	12.59
799.22	18.08
799.53	27.12
799.84	39.39
800.14	36.16
800.45	11.62
800.76	26.15
801.07	21.31
801.37	-0.32
801.68	-13.56
801.99	-24.21
802.29	-16.79
802.60	-36.48
802.91	-48.42
803.22	-50.68
803.52	-51.65
803.83	-38.42
804.14	-33.57
804.44	-29.05
804.75	-6.78
805.06	-5.17
805.36	-3.87
805.67	-0.65
805.97	-11.30
806.28	4.20
806.59	-2.26
806.89	-15.50
807.20	-17.76
807.51	-6.13
807.81	0.32
808.12	7.10
808.42	-9.04
808.73	-17.43
809.04	-17.76
809.34	-6.46
809.65	-15.82
809.95	-19.05
810.26	-9.68
810.56	-17.43
810.87	-14.20
811.18	-9.68
811.48	-16.14
811.79	-19.37
812.09	-21.63
812.40	-30.67
812.70	-32.28
813.01	-39.06
813.31	-44.55
813.62	-42.61
813.92	-39.71
814.23	-30.99
814.53	-37.77
814.84	-4.20
815.14	3.87
815.45	1.94
815.75	0.65
816.06	21.63
816.36	25.83
816.67	27.44
816.97	9.68
817.28	18.08
817.58	39.39
817.89	57.79
818.19	38.74
818.49	34.54
818.80	49.72
819.10	48.10
819.41	58.76
819.71	46.49
820.01	40.68
820.32	26.47
820.62	9.36
820.93	-7.10
821.23	4.52
821.53	-20.66
821.84	-17.11
822.14	-27.44
822.45	-29.38
822.75	-6.13
823.05	2.26
823.36	9.68
823.66	23.24
823.96	23.89
824.27	30.02
824.57	43.26
824.87	33.90
825.18	37.45
825.48	27.12
825.78	32.28
826.09	38.09
826.39	44.55
826.69	44.87
827.00	37.77
827.30	49.07
827.60	40.35
827.90	25.50
828.21	26.47
828.51	22.92
828.81	7.75
829.11	17.43
829.42	-4.84
829.72	-2.91
830.02	-3.55
830.32	-8.07
830.63	-6.13
830.93	-4.52
831.23	-21.31
831.53	-20.34
831.84	-18.40
832.14	-8.39
832.44	-11.30
832.74	-29.70
833.04	-11.30
833.35	0.97
833.65	14.20
833.95	19.05
834.25	8.72
834.55	0.97
834.85	16.14
835.16	32.28
835.46	26.47
835.76	23.57
836.06	15.50
836.36	26.47
836.66	24.54
836.96	7.75
837.26	-16.14
837.57	0.65
837.87	-18.72
838.17	-18.72
838.47	-21.63
838.77	-8.39
839.07	2.91
839.37	11.94
839.67	8.07
839.97	23.57
840.27	18.72
840.57	14.85
840.88	6.13
841.18	10.33
841.48	1.61
841.78	-7.43
842.08	-4.84
842.38	6.13
842.68	10.65
842.98	26.47
843.28	14.53
843.58	19.05
843.88	21.95
844.18	17.11
844.48	16.79
844.78	19.69
845.08	19.37
845.38	31.96
845.68	19.69
845.98	2.26
846.28	-10.01
846.58	-16.79
846.88	-30.67
847.18	-43.26
847.48	-46.81
847.78	-44.55
848.07	-27.12
848.37	-23.24
848.67	-14.20
848.97	-2.58
849.27	6.46
849.57	12.27
849.87	26.15
850.17	29.05
850.47	36.16
850.77	27.76
851.07	24.54
851.36	17.11
851.66	4.20
851.96	-15.50
852.26	-16.14
852.56	-18.08
852.86	-12.27
853.16	-10.65
853.45	-16.14
853.75	-16.14
854.05	-10.65
854.35	-18.08
854.65	-23.24
854.95	-30.99
855.24	-31.31
855.54	-21.95
855.84	-18.72
856.14	-17.43
856.44	0.00
856.73	12.91
857.03	19.69
857.33	37.13
857.63	26.15
857.93	33.57
858.22	31.64
858.52	28.73
858.82	26.80
859.12	36.48
859.41	20.98
859.71	37.77
860.01	25.18
860.30	41.65
860.60	24.86
860.90	23.89
861.20	17.11
861.49	11.62
861.79	12.91
862.09	22.28
862.38	12.27
862.68	20.02
862.98	27.44
863.27	26.80
863.57	43.58
863.87	20.98
864.16	22.92
864.46	21.63
864.76	14.53
865.05	14.20
865.35	9.36
865.65	-6.13
865.94	9.36
866.24	-13.24
866.54	-13.88
866.83	-5.81
867.13	5.17
867.42	4.20
867.72	2.26
868.02	-7.75
868.31	-0.65
868.61	-9.68
868.90	-15.17
869.20	-16.46
869.49	-18.40
869.79	-19.37
870.08	-18.40
870.38	1.29
870.68	14.53
870.97	18.08
871.27	6.13
871.56	7.10
871.86	20.34
872.15	24.86
872.45	10.01
872.74	8.39
873.04	10.98
873.33	10.33
873.63	5.17
873.92	-13.88
874.22	-13.24
874.51	-6.78
874.81	6.46
875.10	2.26
875.40	-9.68
875.69	4.84
875.98	19.37
876.28	22.92
876.57	25.50
876.87	7.43
877.16	4.52
877.46	22.60
877.75	18.72
878.04	11.94
878.34	10.33
878.63	19.05
878.93	25.83
879.22	23.24
879.51	18.08
879.81	12.91
880.10	16.79
880.40	-2.26
880.69	-13.88
880.98	-26.47
881.28	-19.69
881.57	-35.19
881.86	-34.54
882.16	-36.48
882.45	-10.33
882.74	-11.94
883.04	1.94
883.33	0.00
883.62	-0.97
883.92	11.30
884.21	-20.34
884.50	-70.05
>>>>>End Processed Spectral Data<<<<<
